Name,Juhan Sonin
Date of Birth,"Mar 1, 1973"
Recorded Date,2022-01-07 15:09:36 -0500
Classification,Sinus Rhythm
Symptoms,
Software Version,1.90
Device,"Watch6,7"
Sample Rate,512 hertz


Lead,Lead I
Unit,µV

-13.795
-14.91
-16.098
-17.353
-18.668
-20.035
-21.446
-22.892
-24.365
-25.856
-27.356
-28.854
-30.342
-31.809
-33.246
-34.643
-35.99
-37.279
-38.5
-39.645
-40.705
-41.672
-42.539
-43.298
-43.942
-44.463
-44.855
-45.112
-45.227
-45.196
-45.015
-44.678
-44.183
-43.528
-42.709
-41.726
-40.576
-39.26
-37.775
-36.123
-34.303
-32.316
-30.164
-27.849
-25.373
-22.739
-19.95
-17.009
-13.92
-10.688
-7.315
-3.807
-0.169
3.594
7.475
11.466
15.559
19.745
24.015
28.357
32.761
37.215
41.71
46.231
50.767
55.305
59.83
64.327
68.779
73.167
77.474
81.679
85.763
89.706
93.486
97.081
100.47
103.633
106.551
109.205
111.574
113.64
115.384
116.793
117.857
118.564
118.907
118.875
118.464
117.677
116.52
115
113.124
110.886
108.288
105.335
102.029
98.379
94.392
90.071
85.431
80.501
75.319
69.936
64.395
58.724
52.948
47.079
41.149
35.214
29.329
23.554
17.946
12.532
7.373
2.55
-1.949
-6.21
-10.427
-14.933
-19.978
-25.724
-32.365
-39.98
-48.501
-57.765
-67.197
-75.943
-83.276
-88.429
-90.739
-90.004
-86.209
-79.622
-71.435
-63.126
-56.143
-52.632
-54.561
-63.07
-79.415
-103.103
-130.745
-159.441
-186.134
-208.867
-230.074
-250.11
-264.68
-266.288
-242.285
-182.245
-85.288
43.719
194.774
354.991
514.972
663.109
783.845
862.061
884.409
846.838
757.068
631.986
491.924
354.226
232.195
131.362
52.353
-4.9
-43.285
-64.958
-70.506
-64.598
-53.871
-44.408
-43.747
-53.231
-67.578
-82.444
-92.588
-97.053
-100.603
-105.572
-113.012
-122.145
-129.39
-133.182
-133.682
-131.235
-126.887
-121.408
-115.099
-108.588
-102.65
-97.671
-93.792
-91.033
-89.254
-88.374
-88.382
-89.157
-90.517
-92.325
-94.452
-96.805
-99.311
-101.851
-104.288
-106.486
-108.314
-109.689
-110.575
-110.947
-110.813
-110.194
-109.115
-107.624
-105.785
-103.657
-101.301
-98.776
-96.132
-93.429
-90.729
-88.096
-85.591
-83.257
-81.118
-79.189
-77.477
-75.982
-74.701
-73.623
-72.729
-72.005
-71.439
-71.019
-70.738
-70.583
-70.538
-70.589
-70.719
-70.914
-71.162
-71.45
-71.766
-72.097
-72.434
-72.765
-73.081
-73.373
-73.626
-73.829
-73.968
-74.032
-74.009
-73.889
-73.661
-73.317
-72.848
-72.25
-71.517
-70.647
-69.636
-68.483
-67.188
-65.752
-64.178
-62.469
-60.63
-58.666
-56.584
-54.391
-52.096
-49.707
-47.235
-44.689
-42.081
-39.423
-36.726
-34.002
-31.265
-28.525
-25.797
-23.091
-20.422
-17.799
-15.236
-12.743
-10.33
-8.008
-5.785
-3.669
-1.669
0.21
1.962
3.582
5.068
6.417
7.628
8.7
9.634
10.433
11.098
11.633
12.044
12.336
12.515
12.588
12.563
12.449
12.255
11.989
11.662
11.285
10.866
10.417
9.949
9.471
8.993
8.527
8.081
7.665
7.288
6.96
6.688
6.48
6.343
6.282
6.303
6.411
6.609
6.898
7.282
7.761
8.334
9
9.758
10.604
11.534
12.544
13.629
14.782
15.997
17.267
18.584
19.941
21.329
22.74
24.165
25.595
27.021
28.434
29.826
31.187
32.509
33.783
35.001
36.155
37.237
38.241
39.16
39.988
40.719
41.35
41.876
42.295
42.603
42.799
42.882
42.851
42.707
42.449
42.08
41.599
41.01
40.313
39.511
38.608
37.607
36.511
35.325
34.053
32.7
31.271
29.77
28.203
26.574
24.889
23.152
21.368
19.543
17.683
15.792
13.875
11.938
9.983
8.015
6.039
4.057
2.073
0.09
-1.888
-3.857
-5.812
-7.749
-9.661
-11.544
-13.39
-15.193
-16.948
-18.649
-20.292
-21.873
-23.386
-24.829
-26.197
-27.486
-28.689
-29.801
-30.811
-31.71
-32.491
-33.147
-33.67
-34.055
-34.295
-34.385
-34.322
-34.103
-33.719
-33.163
-32.421
-31.48
-30.342
-29.008
-27.487
-25.796
-23.949
-21.961
-19.855
-17.65
-15.351
-12.963
-10.468
-7.852
-5.114
-2.258
0.694
3.722
6.823
9.994
13.233
16.553
19.962
23.468
27.104
30.882
34.783
38.775
42.786
46.732
50.553
54.204
57.647
60.861
63.799
66.415
68.678
70.537
71.951
72.876
73.233
72.965
72.057
70.505
68.35
65.67
62.5
58.872
54.817
50.357
45.546
40.455
35.134
29.63
23.983
18.237
12.483
6.815
1.31
-3.947
-8.923
-13.593
-17.871
-21.74
-25.251
-28.518
-31.809
-35.381
-39.398
-44.071
-49.532
-55.636
-62.113
-68.487
-74.038
-78.282
-80.796
-80.995
-78.686
-74.191
-68.118
-61.545
-55.714
-51.47
-49.899
-52.415
-59.802
-72.461
-90.446
-113.033
-139.435
-167.776
-194.152
-214.864
-227.711
-233.779
-236.373
-235.44
-225.235
-194.836
-134.493
-42.435
73.565
199.367
323.599
440.473
548.192
645.073
723.414
770.926
775.76
731.979
641.085
513.702
367.819
221.465
94.82
2.242
-54.547
-78.298
-81.298
-77.124
-69.937
-64.585
-60.756
-56.265
-55.269
-57.154
-61.453
-68.801
-75.95
-83.635
-92.757
-102.156
-111.854
-119.99
-124.995
-127.136
-126.692
-124.438
-121.298
-117.762
-114.362
-111.684
-110.002
-109.37
-109.73
-110.917
-112.794
-115.265
-118.2
-121.434
-124.833
-128.298
-131.732
-135.039
-138.095
-140.761
-142.934
-144.556
-145.596
-146.052
-145.927
-145.24
-144.025
-142.337
-140.227
-137.751
-134.961
-131.906
-128.647
-125.251
-121.789
-118.331
-114.932
-111.631
-108.457
-105.428
-102.558
-99.852
-97.31
-94.924
-92.688
-90.6
-88.659
-86.865
-85.213
-83.696
-82.307
-81.036
-79.874
-78.816
-77.851
-76.974
-76.177
-75.453
-74.797
-74.201
-73.659
-73.16
-72.692
-72.245
-71.806
-71.363
-70.904
-70.415
-69.886
-69.307
-68.667
-67.959
-67.176
-66.309
-65.355
-64.307
-63.162
-61.918
-60.571
-59.122
-57.569
-55.915
-54.161
-52.31
-50.365
-48.333
-46.217
-44.025
-41.763
-39.438
-37.058
-34.631
-32.166
-29.672
-27.158
-24.636
-22.114
-19.604
-17.115
-14.658
-12.243
-9.879
-7.575
-5.34
-3.181
-1.106
0.879
2.769
4.559
6.243
7.819
9.283
10.633
11.869
12.989
13.994
14.885
15.664
16.333
16.895
17.353
17.711
17.973
18.144
18.229
18.234
18.164
18.025
17.824
17.567
17.261
16.914
16.53
16.118
15.683
15.232
14.77
14.302
13.834
13.369
12.913
12.469
12.04
11.63
11.24
10.873
10.53
10.213
9.921
9.655
9.414
9.199
9.009
8.842
8.697
8.573
8.469
8.382
8.312
8.256
8.213
8.181
8.158
8.142
8.131
8.125
8.12
8.117
8.114
8.111
8.107
8.103
8.097
8.091
8.084
8.076
8.068
8.058
8.048
8.036
8.022
8.006
7.988
7.967
7.942
7.914
7.881
7.843
7.797
7.743
7.68
7.603
7.511
7.402
7.271
7.117
6.936
6.723
6.475
6.188
5.856
5.475
5.04
4.544
3.982
3.349
2.641
1.854
0.983
0.028
-1.012
-2.139
-3.349
-4.644
-6.021
-7.48
-9.018
-10.632
-12.322
-14.086
-15.921
-17.824
-19.788
-21.803
-23.861
-25.952
-28.063
-30.183
-32.297
-34.39
-36.45
-38.468
-40.433
-42.328
-44.136
-45.835
-47.406
-48.837
-50.121
-51.247
-52.212
-53.014
-53.666
-54.19
-54.608
-54.931
-55.157
-55.273
-55.271
-55.142
-54.883
-54.488
-53.938
-53.209
-52.287
-51.164
-49.831
-48.269
-46.437
-44.271
-41.723
-38.777
-35.447
-31.77
-27.785
-23.537
-19.085
-14.506
-9.908
-5.391
-1.03
3.114
6.983
10.497
13.546
15.997
17.747
18.74
18.951
18.378
17.017
14.874
11.986
8.428
4.308
-0.291
-5.313
-10.719
-16.461
-22.449
-28.551
-34.63
-40.58
-46.338
-51.87
-57.132
-62.056
-66.576
-70.637
-74.229
-77.395
-80.122
-82.357
-84.111
-85.451
-86.587
-87.874
-89.625
-92.038
-95.239
-99.276
-104.041
-109.358
-114.867
-119.912
-123.813
-125.942
-125.938
-123.798
-119.851
-114.576
-108.587
-102.964
-99.053
-98.307
-102.082
-111.178
-125.732
-145.866
-170.414
-196.209
-220.14
-238.583
-250.594
-259.206
-264.174
-261.987
-244.05
-197.294
-116.91
-6.033
126.293
266.262
406.354
542.321
667.097
772.115
843.184
865.744
834.549
751.113
626.789
481.67
334.229
204.795
108.079
45.779
15.832
6.488
3.831
3.497
0.429
-4.883
-9.123
-15.701
-23.902
-33.334
-45.082
-56.242
-67.521
-79.805
-92.039
-104.242
-114.471
-121.093
-124.277
-124.228
-121.709
-117.63
-112.452
-106.778
-101.373
-96.707
-93.014
-90.355
-88.639
-87.783
-87.754
-88.469
-89.778
-91.543
-93.645
-95.977
-98.466
-101.019
-103.506
-105.799
-107.77
-109.3
-110.317
-110.787
-110.689
-110.034
-108.844
-107.152
-105.011
-102.492
-99.659
-96.579
-93.312
-89.914
-86.446
-82.975
-79.566
-76.281
-73.164
-70.243
-67.539
-65.063
-62.821
-60.817
-59.041
-57.482
-56.127
-54.968
-53.998
-53.212
-52.599
-52.145
-51.839
-51.666
-51.612
-51.666
-51.817
-52.05
-52.354
-52.717
-53.128
-53.577
-54.051
-54.539
-55.026
-55.498
-55.941
-56.344
-56.694
-56.978
-57.185
-57.307
-57.334
-57.26
-57.077
-56.779
-56.363
-55.824
-55.161
-54.371
-53.454
-52.411
-51.244
-49.955
-48.549
-47.03
-45.404
-43.676
-41.855
-39.948
-37.963
-35.911
-33.8
-31.64
-29.443
-27.219
-24.979
-22.733
-20.493
-18.269
-16.072
-13.912
-11.799
-9.743
-7.754
-5.84
-4.009
-2.27
-0.63
0.905
2.328
3.635
4.822
5.884
6.819
7.625
8.302
8.848
9.264
9.552
9.713
9.752
9.671
9.476
9.171
8.763
8.258
7.663
6.985
6.233
5.415
4.538
3.612
2.644
1.645
0.622
-0.414
-1.456
-2.494
-3.519
-4.524
-5.5
-6.439
-7.335
-8.18
-8.969
-9.697
-10.358
-10.948
-11.465
-11.904
-12.263
-12.542
-12.74
-12.856
-12.891
-12.847
-12.726
-12.531
-12.264
-11.931
-11.533
-11.077
-10.565
-10.005
-9.4
-8.756
-8.079
-7.375
-6.65
-5.909
-5.16
-4.409
-3.66
-2.92
-2.194
-1.488
-0.806
-0.154
0.464
1.043
1.579
2.069
2.506
2.89
3.215
3.479
3.68
3.816
3.884
3.884
3.814
3.674
3.463
3.18
2.825
2.397
1.897
1.325
0.68
-0.036
-0.822
-1.678
-2.601
-3.591
-4.647
-5.767
-6.95
-8.195
-9.498
-10.858
-12.271
-13.736
-15.247
-16.799
-18.387
-20.005
-21.646
-23.305
-24.971
-26.639
-28.299
-29.947
-31.574
-33.173
-34.733
-36.248
-37.71
-39.111
-40.438
-41.681
-42.827
-43.864
-44.783
-45.573
-46.224
-46.725
-47.066
-47.238
-47.235
-47.05
-46.672
-46.087
-45.279
-44.24
-42.974
-41.49
-39.793
-37.891
-35.788
-33.498
-31.041
-28.429
-25.664
-22.733
-19.622
-16.329
-12.869
-9.265
-5.543
-1.715
2.22
6.264
10.409
14.645
18.967
23.385
27.917
32.554
37.25
41.927
46.507
50.935
55.179
59.217
63.021
66.558
69.784
72.666
75.183
77.305
78.987
80.168
80.784
80.809
80.271
79.228
77.732
75.819
73.506
70.809
67.75
64.348
60.62
56.58
52.255
47.702
42.999
38.228
33.457
28.74
24.104
19.575
15.203
11.037
7.107
3.463
0.196
-2.657
-5.114
-7.261
-9.367
-11.725
-14.518
-17.985
-22.367
-27.609
-33.519
-39.728
-45.411
-49.818
-52.424
-52.526
-49.625
-43.876
-35.649
-25.717
-15.658
-6.947
-0.94
0.651
-3.638
-14.621
-32.772
-57.957
-87.825
-118.552
-146.627
-169
-185.985
-200.073
-209.73
-208.334
-183.68
-124.23
-28.84
93.777
227.022
356.978
482.285
606.156
731.691
854.51
953.023
1002.706
987.384
900.773
759.818
595.28
435.236
306.544
220.01
168.967
144.555
134.365
129.763
130.889
135.84
139.428
136.594
121.925
95.344
64.758
37.878
18.912
7.76
-0.748
-10.589
-22.125
-33.775
-42.895
-48.274
-50.411
-50.158
-48.359
-45.521
-42.05
-38.545
-35.496
-33.186
-31.711
-31.045
-31.198
-32.189
-33.973
-36.43
-39.407
-42.773
-46.422
-50.272
-54.227
-58.162
-61.942
-65.439
-68.535
-71.123
-73.138
-74.536
-75.296
-75.43
-74.969
-73.954
-72.449
-70.525
-68.251
-65.694
-62.917
-59.975
-56.932
-53.851
-50.793
-47.816
-44.962
-42.262
-39.738
-37.404
-35.265
-33.325
-31.578
-30.013
-28.621
-27.396
-26.329
-25.419
-24.656
-24.032
-23.535
-23.153
-22.877
-22.696
-22.601
-22.58
-22.624
-22.721
-22.862
-23.039
-23.242
-23.459
-23.678
-23.886
-24.073
-24.227
-24.338
-24.394
-24.388
-24.309
-24.152
-23.909
-23.577
-23.149
-22.623
-21.996
-21.266
-20.433
-19.499
-18.463
-17.33
-16.102
-14.783
-13.38
-11.896
-10.34
-8.718
-7.038
-5.307
-3.535
-1.731
0.096
1.937
3.783
5.624
7.451
9.256
11.029
12.762
14.446
16.074
17.638
19.13
20.545
21.875
23.116
24.262
25.308
26.251
27.088
27.816
28.434
28.941
29.336
29.621
29.795
29.861
29.821
29.677
29.434
29.096
28.667
28.152
27.556
26.886
26.147
25.344
24.484
23.573
22.617
21.622
20.594
19.539
18.464
17.376
16.279
15.18
14.085
13
11.93
10.879
9.852
8.852
7.885
6.951
6.055
5.198
4.381
3.606
2.873
2.182
1.531
0.92
0.346
-0.193
-0.699
-1.175
-1.624
-2.05
-2.456
-2.846
-3.222
-3.589
-3.95
-4.31
-4.671
-5.039
-5.416
-5.808
-6.217
-6.648
-7.105
-7.589
-8.106
-8.657
-9.245
-9.872
-10.542
-11.255
-12.012
-12.815
-13.665
-14.56
-15.501
-16.487
-17.516
-18.588
-19.7
-20.852
-22.04
-23.263
-24.519
-25.806
-27.123
-28.467
-29.837
-31.23
-32.646
-34.082
-35.537
-37.009
-38.496
-39.997
-41.51
-43.035
-44.569
-46.112
-47.662
-49.219
-50.782
-52.35
-53.922
-55.498
-57.077
-58.659
-60.244
-61.831
-63.42
-65.011
-66.602
-68.194
-69.785
-71.373
-72.955
-74.529
-76.092
-77.638
-79.165
-80.666
-82.137
-83.571
-84.962
-86.303
-87.587
-88.807
-89.956
-91.025
-92.007
-92.892
-93.673
-94.339
-94.883
-95.295
-95.566
-95.688
-95.651
-95.447
-95.068
-94.506
-93.753
-92.801
-91.646
-90.28
-88.701
-86.905
-84.891
-82.659
-80.211
-77.549
-74.68
-71.608
-68.341
-64.887
-61.257
-57.462
-53.515
-49.429
-45.222
-40.91
-36.513
-32.052
-27.55
-23.03
-18.519
-14.043
-9.632
-5.316
-1.124
2.913
6.767
10.41
13.814
16.953
19.805
22.349
24.566
26.439
27.95
29.085
29.835
30.199
30.178
29.779
29.002
27.846
26.311
24.395
22.1
19.423
16.36
12.91
9.085
4.911
0.435
-4.298
-9.247
-14.383
-19.69
-25.135
-30.668
-36.228
-41.734
-47.107
-52.29
-57.181
-61.659
-65.692
-69.314
-72.677
-76.09
-79.795
-83.96
-88.811
-94.466
-100.82
-107.668
-114.477
-120.439
-124.935
-127.383
-127.178
-124.133
-118.432
-110.518
-101.481
-92.755
-85.677
-81.82
-82.713
-89.424
-102.653
-122.482
-148.278
-177.873
-207.339
-232.604
-249.298
-255.591
-254.287
-246.549
-231.533
-205.426
-156.565
-75.443
41.127
192.449
366.479
545.275
711.002
843.892
928.67
957.311
929.013
849.533
730.993
590.9
445.557
312.74
208.754
139.086
103.86
95.899
98.467
99.373
91.875
72.506
48.339
27.436
12.386
5.414
3.089
-0.937
-8.47
-20.411
-36.016
-51.924
-66.416
-78.724
-87.908
-94.126
-97.772
-98.961
-98.186
-96.061
-93.018
-89.527
-86.071
-82.878
-80.05
-77.673
-75.689
-74.041
-72.724
-71.694
-70.916
-70.367
-69.995
-69.753
-69.596
-69.466
-69.311
-69.107
-68.824
-68.461
-68.029
-67.509
-66.905
-66.217
-65.423
-64.505
-63.421
-62.144
-60.682
-59.057
-57.298
-55.434
-53.489
-51.472
-49.394
-47.253
-45.026
-42.708
-40.292
-37.784
-35.213
-32.621
-30.067
-27.602
-25.259
-23.055
-21
-19.098
-17.351
-15.76
-14.317
-13.027
-11.901
-10.949
-10.18
-9.588
-9.157
-8.86
-8.66
-8.523
-8.416
-8.315
-8.199
-8.051
-7.859
-7.616
-7.317
-6.955
-6.52
-6.001
-5.385
-4.664
-3.834
-2.894
-1.844
-0.688
0.57
1.925
3.374
4.912
6.535
8.243
10.034
11.904
13.85
15.866
17.946
20.082
22.265
24.485
26.733
28.997
31.269
33.538
35.795
38.031
40.236
42.402
44.521
46.583
48.581
50.507
52.355
54.119
55.792
57.371
58.853
60.232
61.509
62.681
63.747
64.706
65.559
66.307
66.949
67.487
67.924
68.26
68.499
68.645
68.702
68.673
68.565
68.382
68.13
67.815
67.442
67.018
66.548
66.037
65.492
64.918
64.32
63.704
63.075
62.436
61.793
61.149
60.507
59.869
59.239
58.618
58.008
57.409
56.824
56.251
55.693
55.148
54.616
54.097
53.591
53.095
52.61
52.133
51.662
51.195
50.731
50.267
49.801
49.33
48.851
48.362
47.861
47.346
46.813
46.261
45.688
45.091
44.471
43.825
43.152
42.452
41.724
40.969
40.186
39.377
38.541
37.679
36.793
35.884
34.951
33.996
33.02
32.024
31.007
29.972
28.918
27.847
26.758
25.653
24.531
23.393
22.238
21.068
19.881
18.678
17.458
16.22
14.965
13.691
12.398
11.084
9.749
8.391
7.008
5.599
4.161
2.693
1.192
-0.344
-1.916
-3.526
-5.175
-6.864
-8.594
-10.364
-12.173
-14.022
-15.907
-17.827
-19.779
-21.759
-23.762
-25.784
-27.818
-29.859
-31.898
-33.93
-35.945
-37.937
-39.897
-41.816
-43.685
-45.495
-47.236
-48.898
-50.47
-51.941
-53.3
-54.535
-55.635
-56.589
-57.387
-58.017
-58.469
-58.734
-58.803
-58.667
-58.32
-57.756
-56.969
-55.956
-54.715
-53.247
-51.553
-49.635
-47.499
-45.149
-42.594
-39.842
-36.903
-33.786
-30.505
-27.074
-23.506
-19.819
-16.03
-12.158
-8.225
-4.255
-0.274
3.692
7.611
11.456
15.196
18.798
22.235
25.481
28.511
31.302
33.833
36.084
38.035
39.67
40.976
41.941
42.56
42.831
42.76
42.357
41.63
40.587
39.226
37.54
35.523
33.167
30.462
27.405
23.995
20.253
16.212
11.91
7.376
2.629
-2.317
-7.43
-12.669
-17.983
-23.288
-28.517
-33.576
-38.311
-42.647
-46.586
-50.202
-53.725
-57.386
-61.301
-65.681
-70.795
-76.599
-82.891
-89.225
-94.737
-98.819
-101.155
-101.172
-98.37
-92.812
-84.819
-75.325
-66.034
-58.159
-52.68
-51.21
-55.163
-65.321
-82.304
-105.748
-134.164
-166.537
-200.213
-229.981
-251.346
-260.119
-256.052
-244.022
-225.923
-200.637
-160.327
-91.267
12.854
151.824
315.404
483.928
641.529
773.127
866.63
914.979
909.542
847.306
733.93
583.192
419.08
267.033
146.27
65.531
21.299
3.342
-0.101
3.454
9.889
15.371
17.917
13.565
0.794
-16.284
-34.456
-49.534
-59.945
-69.386
-79.632
-91.299
-103.802
-114.042
-120.618
-123.793
-123.957
-122.112
-119.053
-115.12
-110.886
-107.033
-103.926
-101.707
-100.411
-99.959
-100.287
-101.387
-103.164
-105.457
-108.142
-111.107
-114.26
-117.533
-120.824
-124.005
-126.956
-129.556
-131.696
-133.314
-134.365
-134.827
-134.709
-134.029
-132.822
-131.142
-129.053
-126.618
-123.898
-120.95
-117.826
-114.585
-111.287
-107.989
-104.751
-101.61
-98.593
-95.722
-93.006
-90.452
-88.06
-85.824
-83.732
-81.776
-79.947
-78.24
-76.653
-75.178
-73.806
-72.529
-71.338
-70.223
-69.177
-68.195
-67.267
-66.386
-65.547
-64.742
-63.967
-63.216
-62.48
-61.751
-61.02
-60.278
-59.518
-58.732
-57.913
-57.054
-56.149
-55.194
-54.185
-53.12
-51.997
-50.812
-49.566
-48.257
-46.887
-45.457
-43.967
-42.421
-40.82
-39.168
-37.469
-35.726
-33.945
-32.131
-30.29
-28.426
-26.548
-24.66
-22.769
-20.883
-19.008
-17.15
-15.317
-13.516
-11.752
-10.033
-8.364
-6.751
-5.2
-3.716
-2.303
-0.965
0.294
1.47
2.561
3.566
4.481
5.306
6.039
6.682
7.232
7.692
8.063
8.345
8.542
8.655
8.687
8.642
8.524
8.336
8.083
7.769
7.399
6.977
6.51
6.002
5.457
4.883
4.283
3.662
3.027
2.38
1.729
1.076
0.426
-0.217
-0.85
-1.469
-2.071
-2.654
-3.217
-3.757
-4.273
-4.764
-5.231
-5.672
-6.088
-6.479
-6.847
-7.192
-7.515
-7.819
-8.106
-8.377
-8.635
-8.881
-9.119
-9.351
-9.578
-9.803
-10.027
-10.254
-10.484
-10.72
-10.964
-11.216
-11.478
-11.751
-12.035
-12.33
-12.637
-12.954
-13.281
-13.618
-13.963
-14.317
-14.677
-15.045
-15.418
-15.796
-16.178
-16.563
-16.95
-17.338
-17.725
-18.109
-18.49
-18.866
-19.237
-19.602
-19.961
-20.313
-20.659
-20.999
-21.332
-21.659
-21.98
-22.297
-22.609
-22.919
-23.227
-23.537
-23.849
-24.167
-24.492
-24.825
-25.167
-25.518
-25.878
-26.244
-26.616
-26.989
-27.36
-27.727
-28.087
-28.437
-28.775
-29.098
-29.404
-29.692
-29.956
-30.193
-30.396
-30.557
-30.667
-30.716
-30.695
-30.597
-30.413
-30.136
-29.758
-29.275
-28.679
-27.963
-27.115
-26.119
-24.964
-23.644
-22.156
-20.505
-18.7
-16.759
-14.701
-12.548
-10.317
-8.019
-5.652
-3.207
-0.674
1.961
4.698
7.527
10.436
13.42
16.474
19.6
22.807
26.117
29.557
33.162
36.946
40.906
45.012
49.209
53.429
57.591
61.63
65.498
69.151
72.552
75.66
78.435
80.822
82.764
84.191
85.03
85.225
84.746
83.594
81.797
79.405
76.497
73.135
69.363
65.222
60.741
55.962
50.955
45.789
40.533
35.261
30.034
24.918
19.989
15.297
10.901
6.834
3.075
-0.34
-3.327
-5.894
-8.079
-10.034
-12.095
-14.499
-17.374
-20.924
-25.239
-30.2
-35.613
-40.923
-45.277
-48.076
-48.791
-46.906
-42.353
-35.381
-26.418
-16.594
-7.409
-0.079
4.05
3.541
-2.51
-14.644
-33.317
-57.215
-83.112
-108.12
-129.084
-144.615
-157.611
-169.518
-177.789
-176.362
-153.252
-97.824
-8.665
109.83
246.807
387.907
524.219
645.718
741.641
804.673
824.483
798.219
729.714
623.315
493.575
354.933
222.475
116.149
42.81
1.191
-15.008
-21.044
-22.991
-17.949
-6.129
12.622
33.087
42.734
37.859
23.061
3.654
-11.692
-19.918
-25.586
-30.7
-36.39
-42.781
-47.081
-48.329
-47.3
-44.569
-41.096
-37.754
-34.91
-32.821
-31.713
-31.552
-32.135
-33.357
-35.137
-37.346
-39.884
-42.644
-45.494
-48.369
-51.226
-53.966
-56.476
-58.638
-60.358
-61.597
-62.348
-62.607
-62.382
-61.69
-60.568
-59.071
-57.253
-55.164
-52.85
-50.356
-47.735
-45.045
-42.347
-39.702
-37.156
-34.739
-32.47
-30.366
-28.436
-26.682
-25.103
-23.686
-22.425
-21.315
-20.35
-19.529
-18.843
-18.284
-17.839
-17.5
-17.256
-17.099
-17.017
-17.004
-17.05
-17.146
-17.285
-17.46
-17.662
-17.88
-18.104
-18.323
-18.526
-18.702
-18.842
-18.934
-18.971
-18.943
-18.843
-18.666
-18.404
-18.055
-17.613
-17.076
-16.442
-15.71
-14.88
-13.953
-12.93
-11.814
-10.609
-9.317
-7.944
-6.496
-4.977
-3.395
-1.756
-0.068
1.661
3.422
5.208
7.008
8.815
10.62
12.412
14.184
15.927
17.63
19.287
20.888
22.426
23.894
25.285
26.592
27.811
28.935
29.961
30.886
31.705
32.417
33.019
33.512
33.893
34.164
34.324
34.375
34.319
34.158
33.896
33.536
33.082
32.538
31.91
31.203
30.421
29.572
28.66
27.693
26.677
25.618
24.525
23.403
22.26
21.103
19.939
18.774
17.615
16.467
15.336
14.229
13.149
12.103
11.094
10.126
9.205
8.332
7.51
6.743
6.032
5.379
4.785
4.25
3.775
3.361
3.006
2.711
2.475
2.296
2.174
2.107
2.092
2.128
2.211
2.339
2.509
2.717
2.961
3.236
3.54
3.869
4.22
4.588
4.97
5.361
5.758
6.156
6.551
6.938
7.314
7.674
8.014
8.33
8.617
8.873
9.093
9.272
9.408
9.496
9.532
9.512
9.432
9.29
9.081
8.803
8.454
8.03
7.531
6.954
6.297
5.559
4.739
3.838
2.854
1.789
0.644
-0.58
-1.877
-3.246
-4.68
-6.176
-7.727
-9.326
-10.965
-12.639
-14.338
-16.055
-17.781
-19.506
-21.22
-22.913
-24.575
-26.194
-27.756
-29.25
-30.662
-31.981
-33.195
-34.292
-35.26
-36.088
-36.764
-37.279
-37.625
-37.788
-37.76
-37.528
-37.081
-36.419
-35.544
-34.454
-33.15
-31.634
-29.91
-27.987
-25.878
-23.581
-21.098
-18.43
-15.578
-12.559
-9.39
-6.088
-2.675
0.84
4.451
8.133
11.866
15.635
19.421
23.214
27.007
30.754
34.414
37.948
41.313
44.49
47.459
50.193
52.674
54.873
56.758
58.316
59.535
60.385
60.857
60.93
60.575
59.815
58.662
57.12
55.207
52.923
50.259
47.227
43.841
40.117
36.107
31.861
27.418
22.841
18.16
13.406
8.635
3.883
-0.798
-5.335
-9.673
-13.776
-17.575
-20.999
-24.054
-26.793
-29.393
-32.148
-35.309
-39.045
-43.454
-48.576
-54.313
-60.475
-66.73
-72.488
-77.102
-80.022
-80.962
-79.919
-77.197
-73.219
-68.459
-63.833
-60.705
-60.497
-64.245
-72.558
-85.536
-103.05
-124.991
-149.367
-172.007
-188.993
-197.571
-198.443
-194.824
-186.31
-167.019
-127.117
-58.708
38.865
157.041
282.089
405.672
522.739
629.975
725.019
794.903
824.072
803.537
727.523
605.402
459.101
309.075
179.278
85.941
28.083
1.563
-4.882
-4.931
0.586
9.773
19.091
28.583
30.278
20.376
4.045
-15.574
-32.303
-42.99
-51.734
-60.442
-70.023
-80.267
-88.319
-93.037
-94.82
-94.197
-92.171
-89.414
-86.258
-83.205
-80.65
-78.78
-77.63
-77.121
-77.205
-77.855
-79.017
-80.603
-82.499
-84.604
-86.867
-89.24
-91.646
-94.007
-96.231
-98.225
-99.916
-101.228
-102.102
-102.509
-102.441
-101.909
-100.94
-99.565
-97.826
-95.781
-93.482
-90.98
-88.324
-85.556
-82.72
-79.867
-77.044
-74.298
-71.666
-69.172
-66.832
-64.656
-62.648
-60.812
-59.142
-57.627
-56.258
-55.027
-53.929
-52.962
-52.12
-51.394
-50.774
-50.251
-49.817
-49.463
-49.181
-48.963
-48.8
-48.683
-48.606
-48.562
-48.544
-48.541
-48.545
-48.544
-48.527
-48.486
-48.41
-48.289
-48.113
-47.874
-47.567
-47.184
-46.721
-46.174
-45.539
-44.814
-43.998
-43.09
-42.092
-41.002
-39.824
-38.559
-37.211
-35.783
-34.28
-32.706
-31.068
-29.371
-27.622
-25.828
-23.998
-22.138
-20.258
-18.367
-16.472
-14.585
-12.714
-10.869
-9.06
-7.297
-5.588
-3.944
-2.372
-0.881
0.524
1.834
3.045
4.151
5.149
6.035
6.807
7.463
8.001
8.421
8.724
8.911
8.982
8.942
8.793
8.538
8.183
7.733
7.193
6.57
5.871
5.104
4.276
3.396
2.472
1.513
0.53
-0.47
-1.476
-2.479
-3.469
-4.439
-5.379
-6.281
-7.14
-7.947
-8.697
-9.385
-10.007
-10.559
-11.038
-11.442
-11.77
-12.02
-12.193
-12.288
-12.308
-12.254
-12.127
-11.933
-11.674
-11.354
-10.98
-10.556
-10.088
-9.582
-9.044
-8.482
-7.901
-7.31
-6.714
-6.121
-5.539
-4.975
-4.436
-3.929
-3.46
-3.037
-2.664
-2.347
-2.089
-1.894
-1.764
-1.704
-1.714
-1.796
-1.953
-2.184
-2.491
-2.875
-3.337
-3.876
-4.489
-5.174
-5.927
-6.745
-7.624
-8.557
-9.542
-10.574
-11.651
-12.773
-13.939
-15.147
-16.393
-17.675
-18.985
-20.32
-21.672
-23.03
-24.385
-25.732
-27.068
-28.397
-29.72
-31.029
-32.316
-33.57
-34.771
-35.901
-36.943
-37.867
-38.656
-39.299
-39.793
-40.152
-40.392
-40.518
-40.529
-40.416
-40.166
-39.784
-39.274
-38.64
-37.907
-37.102
-36.256
-35.423
-34.646
-33.942
-33.319
-32.761
-32.224
-31.676
-31.095
-30.454
-29.739
-28.919
-27.957
-26.823
-25.469
-23.838
-21.874
-19.495
-16.627
-13.228
-9.268
-4.736
0.321
5.851
11.8
18.091
24.655
31.409
38.247
45.062
51.75
58.202
64.313
69.971
75.056
79.468
83.109
85.889
87.781
88.779
88.888
88.145
86.592
84.278
81.285
77.709
73.624
69.099
64.191
58.945
53.431
47.726
41.929
36.142
30.436
24.852
19.412
14.133
9.034
4.141
-0.54
-5.009
-9.267
-13.277
-16.936
-20.212
-23.153
-25.885
-28.696
-31.845
-35.471
-39.792
-45.04
-51.15
-57.918
-64.931
-71.362
-76.574
-80.129
-81.342
-79.699
-75.293
-68.48
-60.079
-51.579
-44.177
-39.065
-38.068
-42.688
-53.567
-70.967
-94.466
-122.73
-154.357
-186.234
-213.156
-230.604
-235.41
-227.612
-209.543
-180.665
-137.967
-76.268
9.966
119.817
248.189
389.022
532.515
668.632
786.265
868.265
900.271
875.797
794.971
671.243
524.763
374.214
238.771
131.295
57.791
19.472
11.088
23.69
46.163
68.672
82.512
82.224
68.656
45.228
19.121
-2.725
-18.645
-29.697
-39.462
-50.868
-63.523
-75.582
-84.896
-90.498
-92.831
-92.732
-91.042
-88.321
-85.002
-81.63
-78.594
-76.089
-74.221
-72.987
-72.397
-72.477
-73.179
-74.401
-76.042
-78.023
-80.275
-82.745
-85.355
-87.992
-90.559
-92.961
-95.11
-96.927
-98.326
-99.244
-99.648
-99.539
-98.935
-97.871
-96.386
-94.529
-92.361
-89.941
-87.326
-84.57
-81.72
-78.823
-75.927
-73.081
-70.333
-67.719
-65.263
-62.98
-60.88
-58.964
-57.235
-55.686
-54.307
-53.086
-52.016
-51.091
-50.308
-49.66
-49.14
-48.737
-48.443
-48.247
-48.143
-48.12
-48.171
-48.286
-48.457
-48.676
-48.936
-49.229
-49.546
-49.875
-50.207
-50.531
-50.837
-51.117
-51.36
-51.557
-51.701
-51.784
-51.801
-51.747
-51.617
-51.407
-51.115
-50.738
-50.275
-49.724
-49.086
-48.359
-47.545
-46.645
-45.661
-44.595
-43.449
-42.227
-40.934
-39.572
-38.149
-36.668
-35.134
-33.555
-31.937
-30.285
-28.608
-26.911
-25.203
-23.492
-21.785
-20.089
-18.412
-16.761
-15.143
-13.564
-12.03
-10.546
-9.119
-7.752
-6.451
-5.22
-4.063
-2.983
-1.983
-1.066
-0.234
0.511
1.168
1.738
2.219
2.613
2.921
3.144
3.285
3.346
3.332
3.246
3.093
2.878
2.608
2.289
1.927
1.53
1.105
0.658
0.198
-0.27
-0.738
-1.199
-1.647
-2.074
-2.475
-2.842
-3.17
-3.453
-3.687
-3.865
-3.985
-4.042
-4.034
-3.957
-3.809
-3.59
-3.296
-2.929
-2.488
-1.974
-1.388
-0.734
-0.012
0.771
1.614
2.51
3.455
4.443
5.469
6.527
7.611
8.716
9.834
10.959
12.085
13.205
14.312
15.398
16.456
17.481
18.465
19.404
20.29
21.12
21.888
22.59
23.222
23.78
24.261
24.661
24.978
25.209
25.354
25.41
25.379
25.259
25.051
24.758
24.379
23.917
23.372
22.747
22.043
21.264
20.413
19.493
18.51
17.469
16.377
15.243
14.074
12.879
11.663
10.436
9.205
7.976
6.755
5.546
4.355
3.191
2.06
0.972
-0.063
-1.036
-1.936
-2.752
-3.473
-4.091
-4.597
-4.989
-5.261
-5.402
-5.402
-5.246
-4.925
-4.434
-3.771
-2.934
-1.928
-0.762
0.542
1.951
3.442
5.004
6.63
8.329
10.103
11.954
13.887
15.906
18.017
20.232
22.554
24.978
27.512
30.175
33.004
36.062
39.378
42.952
46.768
50.787
54.96
59.238
63.549
67.8
71.912
75.812
79.441
82.765
85.728
88.256
90.257
91.62
92.265
92.163
91.297
89.672
87.315
84.257
80.563
76.334
71.649
66.561
61.11
55.311
49.212
42.9
36.476
30.05
23.709
17.493
11.444
5.62
0.063
-5.178
-10.068
-14.636
-18.852
-22.6
-25.843
-28.588
-30.955
-33.273
-35.858
-38.902
-42.669
-47.409
-53.076
-59.505
-66.212
-72.2
-76.602
-78.729
-77.79
-73.295
-65.368
-54.416
-41.542
-28.72
-17.844
-10.806
-9.647
-16.033
-30.887
-54.551
-86.56
-124.11
-162.773
-198.309
-225.915
-243.82
-254.138
-255.68
-245.025
-215.19
-155.425
-62.603
59.505
202.431
354.822
509.545
658.96
792.859
897.099
954.023
954.892
900.197
799.051
670.677
531.742
396.105
278.123
185.14
120.9
87.163
77.532
82.192
91.825
95.061
85.438
63.723
33.62
3.717
-18.554
-31.59
-37.039
-40.303
-46.082
-55.061
-65.709
-75.3
-82.093
-86.325
-89.146
-91.305
-92.69
-93.179
-92.938
-92.279
-91.689
-91.269
-90.611
-89.71
-88.987
-88.698
-89.041
-90.061
-91.558
-93.497
-96.035
-99.112
-102.477
-105.912
-109.164
-112.068
-114.585
-116.619
-118.054
-118.853
-119.018
-118.587
-117.627
-116.184
-114.29
-112.001
-109.379
-106.484
-103.389
-100.15
-96.828
-93.484
-90.181
-86.982
-83.93
-81.056
-78.384
-75.924
-73.685
-71.67
-69.875
-68.288
-66.901
-65.707
-64.696
-63.861
-63.191
-62.673
-62.294
-62.039
-61.893
-61.845
-61.88
-61.985
-62.145
-62.346
-62.577
-62.824
-63.073
-63.309
-63.518
-63.683
-63.789
-63.823
-63.772
-63.621
-63.359
-62.975
-62.463
-61.814
-61.023
-60.086
-59
-57.764
-56.376
-54.84
-53.158
-51.332
-49.369
-47.275
-45.056
-42.722
-40.281
-37.743
-35.121
-32.424
-29.667
-26.862
-24.022
-21.162
-18.295
-15.436
-12.599
-9.797
-7.045
-4.356
-1.743
0.781
3.204
5.516
7.707
9.767
11.69
13.467
15.094
16.565
17.878
19.03
20.019
20.846
21.51
22.013
22.358
22.549
22.589
22.484
22.241
21.866
21.367
20.753
20.032
19.214
18.309
17.327
16.277
15.172
14.021
12.834
11.624
10.399
9.17
7.946
6.737
5.55
4.395
3.278
2.205
1.182
0.215
-0.692
-1.536
-2.313
-3.021
-3.659
-4.225
-4.72
-5.143
-5.497
-5.782
-6.001
-6.157
-6.255
-6.296
-6.287
-6.231
-6.133
-5.999
-5.832
-5.639
-5.425
-5.194
-4.952
-4.702
-4.45
-4.2
-3.954
-3.717
-3.49
-3.277
-3.079
-2.899
-2.737
-2.596
-2.476
-2.379
-2.305
-2.256
-2.231
-2.232
-2.256
-2.306
-2.378
-2.474
-2.591
-2.728
-2.885
-3.06
-3.252
-3.46
-3.683
-3.921
-4.173
-4.438
-4.718
-5.013
-5.324
-5.651
-5.998
-6.366
-6.757
-7.173
-7.617
-8.09
-8.595
-9.132
-9.701
-10.301
-10.931
-11.589
-12.274
-12.983
-13.715
-14.467
-15.238
-16.027
-16.833
-17.653
-18.483
-19.319
-20.156
-20.988
-21.807
-22.604
-23.37
-24.093
-24.763
-25.37
-25.904
-26.352
-26.698
-26.924
-27.014
-26.959
-26.75
-26.383
-25.857
-25.174
-24.346
-23.388
-22.318
-21.151
-19.898
-18.564
-17.15
-15.657
-14.085
-12.441
-10.717
-8.899
-6.961
-4.874
-2.604
-0.119
2.621
5.671
9.078
12.876
17.082
21.691
26.683
32.023
37.671
43.582
49.685
55.886
62.074
68.126
73.927
79.377
84.358
88.729
92.363
95.146
96.997
97.877
97.756
96.617
94.459
91.291
87.167
82.185
76.452
70.085
63.185
55.837
48.16
40.319
32.465
24.729
17.226
10.034
3.248
-3.007
-8.63
-13.548
-17.712
-21.097
-23.748
-25.759
-27.283
-28.558
-29.817
-31.255
-33.149
-35.816
-39.311
-43.453
-47.838
-51.818
-54.969
-57.158
-58.048
-57.153
-54.42
-50.188
-45.34
-41.285
-38.911
-38.593
-41.054
-47.299
-57.961
-73.408
-93.323
-116.57
-142.702
-170.663
-197.109
-218.107
-229.632
-229.857
-222.662
-212.253
-199.056
-179.055
-139.142
-65.378
48.604
202.84
384.786
573.88
749.977
892.019
983.36
1015.011
984.395
896.453
765.319
610.141
450.705
307.97
195.738
118.256
73.987
53.558
47.188
49.857
58.04
68.842
77.185
75.927
60.432
32.189
-0.884
-30.545
-52.222
-66.075
-76.841
-87.759
-98.78
-108.723
-115.427
-118.099
-117.706
-115.221
-111.522
-107.354
-103.204
-99.479
-96.543
-94.514
-93.335
-92.994
-93.474
-94.74
-96.73
-99.334
-102.422
-105.889
-109.636
-113.554
-117.511
-121.358
-124.95
-128.152
-130.837
-132.927
-134.374
-135.151
-135.271
-134.759
-133.647
-131.995
-129.874
-127.355
-124.511
-121.409
-118.11
-114.683
-111.199
-107.726
-104.329
-101.056
-97.938
-94.999
-92.251
-89.703
-87.357
-85.208
-83.242
-81.449
-79.822
-78.354
-77.041
-75.877
-74.848
-73.944
-73.154
-72.465
-71.868
-71.353
-70.909
-70.525
-70.191
-69.898
-69.638
-69.4
-69.171
-68.94
-68.694
-68.42
-68.108
-67.746
-67.324
-66.833
-66.264
-65.612
-64.872
-64.04
-63.111
-62.086
-60.962
-59.74
-58.421
-57.007
-55.501
-53.907
-52.229
-50.472
-48.644
-46.75
-44.798
-42.797
-40.755
-38.682
-36.588
-34.482
-32.375
-30.277
-28.199
-26.151
-24.144
-22.186
-20.288
-18.459
-16.707
-15.039
-13.464
-11.986
-10.612
-9.345
-8.19
-7.15
-6.225
-5.419
-4.73
-4.16
-3.707
-3.37
-3.147
-3.035
-3.031
-3.131
-3.331
-3.624
-4.007
-4.471
-5.011
-5.619
-6.288
-7.011
-7.778
-8.583
-9.417
-10.273
-11.142
-12.016
-12.888
-13.752
-14.598
-15.422
-16.217
-16.977
-17.697
-18.373
-18.999
-19.571
-20.088
-20.545
-20.94
-21.271
-21.536
-21.733
-21.862
-21.922
-21.914
-21.839
-21.697
-21.491
-21.223
-20.896
-20.513
-20.077
-19.592
-19.062
-18.491
-17.883
-17.243
-16.576
-15.885
-15.175
-14.452
-13.72
-12.983
-12.246
-11.512
-10.786
-10.073
-9.376
-8.699
-8.047
-7.425
-6.838
-6.289
-5.784
-5.326
-4.92
-4.57
-4.277
-4.046
-3.877
-3.774
-3.738
-3.771
-3.874
-4.048
-4.294
-4.614
-5.006
-5.472
-6.009
-6.619
-7.299
-8.048
-8.865
-9.749
-10.699
-11.712
-12.786
-13.919
-15.106
-16.343
-17.624
-18.943
-20.291
-21.659
-23.038
-24.42
-25.794
-27.153
-28.488
-29.792
-31.057
-32.278
-33.446
-34.553
-35.589
-36.543
-37.404
-38.16
-38.799
-39.31
-39.682
-39.906
-39.975
-39.885
-39.628
-39.197
-38.58
-37.764
-36.738
-35.501
-34.048
-32.384
-30.518
-28.467
-26.259
-23.924
-21.485
-18.956
-16.344
-13.643
-10.852
-7.966
-4.98
-1.9
1.268
4.526
7.862
11.272
14.767
18.362
22.096
26.019
30.144
34.469
38.979
43.622
48.349
53.095
57.772
62.312
66.655
70.742
74.537
77.999
81.063
83.659
85.7
87.087
87.765
87.704
86.879
85.306
83.004
80.02
76.443
72.352
67.795
62.826
57.478
51.798
45.885
39.843
33.773
27.786
21.94
16.285
10.899
5.862
1.252
-2.874
-6.536
-9.773
-12.568
-14.876
-16.7
-18.135
-19.441
-20.925
-22.749
-24.913
-27.351
-30.085
-33.192
-36.7
-40.37
-43.763
-46.54
-48.617
-50.182
-51.336
-51.961
-51.843
-51.06
-50.158
-49.98
-51.339
-54.593
-60.174
-68.825
-81.304
-98.002
-117.224
-135.119
-148.108
-153.868
-153.499
-150.147
-142.755
-125.838
-89.609
-24.156
71.746
191.544
323.451
455.047
578.594
687.617
774.883
829.843
839.912
798.307
705.453
572.667
420.132
268.5
137.112
37.605
-27.201
-59.771
-66.276
-52.878
-26.405
5.568
33.169
47.1
44.045
26.395
3.51
-15.122
-25.722
-29.152
-30.838
-34.867
-41.437
-48.874
-54.416
-56.851
-56.715
-54.859
-52.216
-49.368
-46.657
-44.51
-43.195
-42.757
-43.125
-44.161
-45.784
-47.946
-50.545
-53.449
-56.516
-59.655
-62.815
-65.922
-68.884
-71.589
-73.918
-75.802
-77.216
-78.14
-78.571
-78.521
-78.004
-77.058
-75.737
-74.088
-72.162
-70.006
-67.661
-65.181
-62.622
-60.04
-57.491
-55.018
-52.645
-50.392
-48.275
-46.297
-44.463
-42.768
-41.201
-39.755
-38.426
-37.207
-36.095
-35.084
-34.165
-33.329
-32.566
-31.868
-31.226
-30.635
-30.087
-29.575
-29.094
-28.638
-28.202
-27.78
-27.364
-26.945
-26.515
-26.064
-25.585
-25.067
-24.504
-23.887
-23.21
-22.468
-21.655
-20.769
-19.805
-18.763
-17.641
-16.439
-15.156
-13.795
-12.357
-10.847
-9.267
-7.622
-5.917
-4.158
-2.35
-0.501
1.384
3.296
5.229
7.174
9.124
11.068
13
14.909
16.787
18.624
20.412
22.142
23.804
25.391
26.894
28.307
29.622
30.833
31.936
32.924
33.794
34.542
35.166
35.664
36.034
36.277
36.392
36.381
36.245
35.986
35.608
35.114
34.507
33.793
32.976
32.062
31.057
29.967
28.8
27.563
26.264
24.91
23.51
22.073
20.606
19.118
17.617
16.112
14.611
13.121
11.65
10.205
8.792
7.42
6.092
4.815
3.593
2.431
1.331
0.296
-0.671
-1.568
-2.394
-3.149
-3.832
-4.443
-4.983
-5.454
-5.856
-6.192
-6.465
-6.678
-6.834
-6.937
-6.991
-7.001
-6.97
-6.904
-6.807
-6.683
-6.539
-6.379
-6.21
-6.036
-5.863
-5.698
-5.546
-5.412
-5.301
-5.218
-5.168
-5.153
-5.178
-5.246
-5.361
-5.524
-5.738
-6.007
-6.332
-6.716
-7.16
-7.666
-8.235
-8.867
-9.564
-10.325
-11.151
-12.042
-12.998
-14.018
-15.102
-16.25
-17.459
-18.726
-20.048
-21.421
-22.84
-24.298
-25.788
-27.303
-28.836
-30.379
-31.926
-33.471
-35.006
-36.528
-38.031
-39.51
-40.958
-42.366
-43.726
-45.025
-46.255
-47.403
-48.457
-49.406
-50.236
-50.941
-51.513
-51.944
-52.224
-52.339
-52.272
-52.01
-51.551
-50.889
-50.021
-48.953
-47.693
-46.264
-44.698
-43.02
-41.242
-39.368
-37.391
-35.304
-33.107
-30.795
-28.361
-25.8
-23.097
-20.251
-17.267
-14.137
-10.842
-7.343
-3.575
0.495
4.869
9.53
14.439
19.548
24.806
30.138
35.449
40.652
45.667
50.433
54.912
59.044
62.752
65.938
68.477
70.282
71.314
71.544
70.967
69.596
67.453
64.599
61.143
57.167
52.74
47.915
42.718
37.211
31.482
25.637
19.805
14.091
8.563
3.285
-1.694
-6.334
-10.581
-14.418
-17.869
-20.928
-23.621
-25.956
-27.878
-29.439
-30.78
-32.107
-33.788
-36.154
-39.284
-43.24
-48.125
-53.798
-60.07
-66.518
-72.151
-76.064
-77.878
-77.368
-74.501
-69.696
-63.404
-56.569
-51.097
-48.801
-51.036
-58.924
-73.053
-93.543
-118.829
-145.087
-168.229
-183.905
-191.744
-195.961
-196.329
-190.305
-170.039
-120.281
-35.142
84.305
231.335
387.705
538.912
672.565
775.381
840.179
859.389
829.237
751.641
633.945
492.933
347.933
221.288
130.784
79.643
62.74
64.998
68.741
66.926
58.718
48.288
42.317
41.138
41.342
39.664
32.992
21.017
5.574
-11.614
-28.947
-44.916
-58.353
-68.662
-75.677
-79.621
-81.042
-80.468
-78.415
-75.531
-72.457
-69.603
-67.194
-65.319
-63.97
-63.157
-62.888
-63.111
-63.732
-64.676
-65.896
-67.352
-69.021
-70.855
-72.765
-74.669
-76.5
-78.182
-79.653
-80.843
-81.663
-82.059
-82.015
-81.53
-80.626
-79.334
-77.68
-75.708
-73.472
-71.023
-68.411
-65.681
-62.869
-60.014
-57.158
-54.343
-51.616
-49.01
-46.544
-44.231
-42.078
-40.088
-38.261
-36.592
-35.066
-33.672
-32.402
-31.252
-30.216
-29.29
-28.462
-27.724
-27.066
-26.477
-25.95
-25.475
-25.042
-24.643
-24.27
-23.914
-23.57
-23.229
-22.882
-22.521
-22.135
-21.716
-21.256
-20.745
-20.178
-19.546
-18.847
-18.074
-17.227
-16.303
-15.3
-14.219
-13.061
-11.827
-10.518
-9.138
-7.689
-6.175
-4.601
-2.971
-1.289
0.438
2.206
4.008
5.837
7.687
9.551
11.422
13.293
15.155
17.001
18.823
20.615
22.368
24.076
25.732
27.329
28.861
30.323
31.711
33.021
34.248
35.39
36.444
37.41
38.284
39.068
39.76
40.361
40.87
41.291
41.622
41.866
42.025
42.1
42.095
42.011
41.852
41.621
41.322
40.96
40.539
40.064
39.538
38.968
38.357
37.71
37.033
36.329
35.604
34.862
34.107
33.343
32.575
31.807
31.041
30.28
29.528
28.786
28.057
27.342
26.644
25.962
25.3
24.658
24.038
23.44
22.866
22.315
21.789
21.286
20.805
20.347
19.909
19.49
19.089
18.706
18.338
17.984
17.643
17.313
16.993
16.68
16.371
16.065
15.758
15.447
15.131
14.805
14.469
14.119
13.754
13.372
12.969
12.544
12.094
11.616
11.106
10.562
9.981
9.359
8.694
7.984
7.228
6.425
5.575
4.677
3.731
2.737
1.696
0.604
-0.54
-1.741
-3.001
-4.32
-5.7
-7.136
-8.628
-10.172
-11.763
-13.392
-15.055
-16.746
-18.465
-20.219
-22.006
-23.82
-25.647
-27.466
-29.261
-31.017
-32.714
-34.323
-35.826
-37.211
-38.48
-39.651
-40.73
-41.715
-42.595
-43.34
-43.935
-44.378
-44.674
-44.837
-44.886
-44.836
-44.725
-44.615
-44.545
-44.538
-44.582
-44.624
-44.631
-44.587
-44.48
-44.315
-44.083
-43.76
-43.318
-42.721
-41.918
-40.852
-39.439
-37.556
-35.122
-32.076
-28.407
-24.17
-19.41
-14.162
-8.479
-2.412
3.974
10.598
17.374
24.21
30.984
37.551
43.75
49.393
54.322
58.396
61.517
63.646
64.758
64.841
63.911
61.996
59.131
55.36
50.739
45.327
39.226
32.559
25.449
18.033
10.447
2.836
-4.659
-11.933
-18.907
-25.536
-31.8
-37.673
-43.111
-48.075
-52.518
-56.413
-59.78
-62.607
-64.858
-66.574
-67.854
-68.913
-70.093
-71.652
-73.764
-76.642
-80.403
-84.999
-90.302
-95.853
-100.94
-104.967
-107.27
-107.196
-104.481
-99.129
-91.427
-82.276
-72.81
-64.376
-58.905
-58.282
-63.991
-76.332
-94.072
-115.578
-138.781
-163.185
-189.788
-217.295
-242.947
-259.611
-255.29
-221.009
-152.23
-51.294
71.575
205.767
344.549
483.87
618.646
740.821
836.006
886.986
885.633
831.437
731.964
605.125
467.201
333.494
220.393
136.88
86.497
67.312
69.552
79.993
87.608
86.068
72.549
51.258
29.117
9.239
-4.979
-14.289
-23.715
-34.944
-48.793
-64.715
-79.286
-90.581
-98.321
-102.485
-103.847
-103.163
-100.726
-96.976
-92.597
-88.204
-84.208
-80.889
-78.359
-76.608
-75.665
-75.527
-76.106
-77.305
-79.036
-81.196
-83.696
-86.458
-89.379
-92.35
-95.254
-97.968
-100.37
-102.347
-103.821
-104.751
-105.118
-104.931
-104.211
-102.99
-101.321
-99.27
-96.901
-94.276
-91.454
-88.485
-85.429
-82.35
-79.308
-76.365
-73.562
-70.928
-68.48
-66.232
-64.187
-62.346
-60.702
-59.238
-57.944
-56.812
-55.832
-55.002
-54.311
-53.748
-53.299
-52.953
-52.698
-52.522
-52.415
-52.365
-52.362
-52.394
-52.453
-52.531
-52.616
-52.696
-52.76
-52.794
-52.787
-52.727
-52.604
-52.407
-52.126
-51.756
-51.289
-50.721
-50.049
-49.27
-48.382
-47.386
-46.281
-45.069
-43.753
-42.336
-40.822
-39.217
-37.525
-35.753
-33.91
-32.002
-30.039
-28.029
-25.982
-23.908
-21.817
-19.72
-17.627
-15.55
-13.499
-11.484
-9.515
-7.604
-5.76
-3.991
-2.306
-0.713
0.782
2.172
3.452
4.618
5.666
6.593
7.398
8.079
8.636
9.068
9.377
9.565
9.633
9.585
9.424
9.156
8.784
8.315
7.755
7.109
6.386
5.592
4.734
3.821
2.86
1.858
0.825
-0.233
-1.307
-2.389
-3.474
-4.552
-5.618
-6.665
-7.687
-8.679
-9.635
-10.551
-11.421
-12.243
-13.012
-13.726
-14.381
-14.976
-15.509
-15.979
-16.386
-16.729
-17.009
-17.227
-17.384
-17.483
-17.524
-17.512
-17.448
-17.335
-17.177
-16.977
-16.74
-16.468
-16.165
-15.836
-15.485
-15.116
-14.732
-14.338
-13.938
-13.537
-13.137
-12.745
-12.364
-11.998
-11.653
-11.333
-11.043
-10.786
-10.567
-10.39
-10.259
-10.177
-10.147
-10.174
-10.258
-10.404
-10.614
-10.889
-11.232
-11.643
-12.126
-12.679
-13.305
-14.002
-14.772
-15.613
-16.526
-17.508
-18.56
-19.679
-20.862
-22.106
-23.408
-24.761
-26.162
-27.604
-29.079
-30.58
-32.099
-33.627
-35.155
-36.674
-38.173
-39.643
-41.073
-42.452
-43.77
-45.014
-46.175
-47.24
-48.198
-49.038
-49.749
-50.32
-50.74
-51
-51.088
-50.997
-50.715
-50.236
-49.551
-48.652
-47.535
-46.194
-44.628
-42.836
-40.817
-38.572
-36.107
-33.425
-30.533
-27.439
-24.151
-20.681
-17.04
-13.243
-9.304
-5.24
-1.068
3.191
7.517
11.884
16.266
20.637
24.967
29.227
33.385
37.412
41.278
44.956
48.422
51.65
54.616
57.297
59.67
61.714
63.413
64.754
65.726
66.327
66.56
66.432
65.95
65.116
63.925
62.37
60.442
58.136
55.445
52.367
48.91
45.099
40.97
36.565
31.915
27.034
21.939
16.657
11.233
5.728
0.22
-5.224
-10.513
-15.52
-20.168
-24.459
-28.486
-32.466
-36.625
-41.087
-45.99
-51.526
-57.72
-64.375
-71.107
-77.265
-82.234
-85.723
-87.439
-86.914
-83.973
-78.868
-72.154
-64.897
-58.307
-53.137
-50.229
-51.087
-57.067
-68.964
-87.42
-111.388
-137.85
-164.409
-188.433
-208.592
-227.474
-245.838
-260.375
-263.144
-240.024
-180.145
-82.14
47.175
194.196
347.144
500.17
647.879
781.837
888.478
950.661
956.465
904.665
802.146
664.262
510.769
359.868
230.777
136.298
77.953
51.524
46.136
50.941
61.803
74.426
83.054
82.922
68.605
40.398
6.957
-23.858
-46.937
-61.418
-72.575
-83.951
-95.622
-106.663
-114.589
-118.302
-118.703
-116.702
-113.197
-108.959
-104.486
-100.195
-96.462
-93.477
-91.219
-89.7
-88.969
-89.012
-89.789
-91.226
-93.201
-95.61
-98.37
-101.372
-104.489
-107.596
-110.557
-113.248
-115.559
-117.381
-118.643
-119.307
-119.356
-118.805
-117.679
-116.018
-113.88
-111.339
-108.467
-105.333
-102.005
-98.541
-95.006
-91.463
-87.972
-84.594
-81.369
-78.324
-75.479
-72.844
-70.425
-68.221
-66.224
-64.42
-62.796
-61.342
-60.05
-58.914
-57.923
-57.066
-56.328
-55.696
-55.159
-54.705
-54.321
-53.996
-53.718
-53.475
-53.258
-53.058
-52.862
-52.66
-52.438
-52.183
-51.882
-51.524
-51.098
-50.592
-49.997
-49.305
-48.509
-47.605
-46.588
-45.455
-44.204
-42.834
-41.345
-39.738
-38.015
-36.179
-34.233
-32.181
-30.03
-27.786
-25.455
-23.047
-20.568
-18.029
-15.439
-12.808
-10.146
-7.463
-4.771
-2.081
0.596
3.248
5.864
8.433
10.944
13.385
15.746
18.019
20.194
22.262
24.218
26.053
27.763
29.341
30.784
32.088
33.25
34.267
35.139
35.865
36.447
36.884
37.18
37.338
37.361
37.253
37.02
36.667
36.201
35.627
34.953
34.188
33.339
32.414
31.424
30.377
29.284
28.153
26.994
25.816
24.63
23.444
22.267
21.107
19.974
18.874
17.816
16.806
15.851
14.957
14.127
13.367
12.68
12.067
11.532
11.076
10.698
10.399
10.179
10.036
9.969
9.976
10.053
10.198
10.406
10.675
10.998
11.371
11.789
12.246
12.737
13.256
13.796
14.353
14.918
15.485
16.048
16.599
17.132
17.64
18.115
18.553
18.947
19.293
19.586
19.823
20
20.113
20.161
20.141
20.051
19.889
19.653
19.342
18.955
18.493
17.954
17.34
16.65
15.886
15.049
14.14
13.16
12.111
10.996
9.817
8.58
7.289
5.951
4.572
3.161
1.728
0.281
-1.173
-2.625
-4.067
-5.492
-6.893
-8.265
-9.604
-10.902
-12.151
-13.342
-14.465
-15.511
-16.468
-17.326
-18.072
-18.695
-19.186
-19.54
-19.75
-19.806
-19.697
-19.406
-18.925
-18.248
-17.376
-16.308
-15.048
-13.604
-11.997
-10.258
-8.418
-6.5
-4.511
-2.449
-0.316
1.886
4.154
6.485
8.893
11.392
13.993
16.694
19.496
22.411
25.475
28.743
32.261
36.04
40.067
44.308
48.733
53.299
57.952
62.617
67.189
71.573
75.702
79.522
82.983
86.016
88.518
90.371
91.486
91.814
91.329
90.026
87.889
84.923
81.173
76.718
71.668
66.117
60.121
53.734
47.026
40.094
33.071
26.097
19.266
12.647
6.297
0.273
-5.326
-10.417
-14.964
-18.96
-22.457
-25.473
-27.949
-29.907
-31.487
-32.918
-34.603
-36.891
-39.845
-43.52
-48.029
-53.259
-59.075
-65.08
-70.264
-73.746
-75.213
-74.467
-71.561
-66.993
-61.132
-54.917
-50.367
-49.233
-52.817
-62.34
-78.215
-100.185
-126.853
-154.579
-178.956
-196.948
-209.082
-217.786
-222.613
-217.982
-191.477
-131.753
-37.535
83.099
213.106
337.191
450.762
553.42
645.747
723.811
774.731
785.993
753.053
677.341
567.38
438.082
301.67
173.033
70.015
0.003
-34.91
-41.251
-36.377
-30.521
-28.097
-29.72
-29.345
-25.435
-20.803
-17.739
-19.401
-26.62
-37.644
-50.757
-64.23
-76.404
-86.072
-92.648
-96.048
-96.582
-94.908
-91.679
-87.468
-82.958
-78.819
-75.45
-73.033
-71.58
-70.946
-71.023
-71.747
-73.004
-74.669
-76.635
-78.8
-81.096
-83.475
-85.865
-88.173
-90.303
-92.15
-93.622
-94.667
-95.253
-95.37
-95.028
-94.243
-93.039
-91.46
-89.558
-87.386
-84.995
-82.431
-79.737
-76.96
-74.154
-71.369
-68.657
-66.052
-63.576
-61.244
-59.064
-57.042
-55.178
-53.467
-51.896
-50.456
-49.142
-47.947
-46.868
-45.9
-45.033
-44.259
-43.566
-42.948
-42.396
-41.903
-41.462
-41.064
-40.702
-40.369
-40.06
-39.768
-39.482
-39.195
-38.895
-38.573
-38.219
-37.826
-37.383
-36.882
-36.317
-35.682
-34.973
-34.184
-33.313
-32.358
-31.316
-30.187
-28.97
-27.667
-26.278
-24.805
-23.251
-21.62
-19.915
-18.141
-16.304
-14.409
-12.463
-10.472
-8.443
-6.385
-4.304
-2.21
-0.111
1.986
4.07
6.133
8.167
10.162
12.112
14.007
15.84
17.605
19.296
20.906
22.431
23.867
25.208
26.453
27.598
28.64
29.58
30.414
31.145
31.771
32.294
32.715
33.037
33.262
33.393
33.434
33.39
33.264
33.062
32.789
32.451
32.054
31.603
31.106
30.569
29.998
29.399
28.78
28.145
27.502
26.856
26.213
25.577
24.955
24.351
23.768
23.212
22.686
22.192
21.733
21.313
20.931
20.59
20.289
20.031
19.813
19.637
19.5
19.403
19.342
19.316
19.322
19.358
19.421
19.507
19.612
19.733
19.866
20.007
20.151
20.294
20.431
20.557
20.668
20.759
20.824
20.859
20.859
20.82
20.736
20.604
20.42
20.179
19.879
19.515
19.085
18.586
18.015
17.37
16.649
15.85
14.972
14.015
12.978
11.86
10.663
9.387
8.034
6.605
5.103
3.532
1.894
0.195
-1.561
-3.366
-5.216
-7.103
-9.018
-10.954
-12.902
-14.854
-16.798
-18.727
-20.631
-22.498
-24.32
-26.085
-27.783
-29.402
-30.932
-32.361
-33.679
-34.875
-35.938
-36.858
-37.626
-38.231
-38.664
-38.918
-38.984
-38.854
-38.524
-37.987
-37.242
-36.284
-35.115
-33.734
-32.144
-30.348
-28.351
-26.16
-23.781
-21.223
-18.496
-15.612
-12.581
-9.419
-6.141
-2.764
0.693
4.209
7.763
11.329
14.884
18.399
21.849
25.205
28.441
31.535
34.461
37.196
39.719
42.008
44.045
45.813
47.295
48.474
49.34
49.886
50.113
50.028
49.634
48.932
47.916
46.578
44.912
42.917
40.582
37.906
34.888
31.54
27.903
24.019
19.926
15.654
11.21
6.61
1.893
-2.896
-7.683
-12.388
-16.953
-21.293
-25.286
-28.902
-32.167
-35.185
-38.216
-41.471
-45.095
-49.327
-54.313
-59.943
-65.992
-72.021
-77.379
-81.661
-84.458
-85.112
-83.295
-79.149
-73.144
-66.231
-59.497
-53.72
-50.018
-50.061
-55.164
-65.941
-82.36
-103.776
-129.33
-157.985
-186.664
-210.271
-224.141
-225.084
-214.069
-194.124
-165.466
-125.622
-67.427
16.36
127.189
262.131
411.165
560.405
695.697
802.062
867.1
881.872
843.705
756.537
632.188
489.668
347.852
225.668
134.618
75.806
46.576
37.453
39.569
47.389
53.728
55.426
49.857
35.993
18.496
0.822
-13.578
-23.499
-32.708
-43.125
-55.401
-68.896
-80.363
-88.257
-92.662
-93.849
-92.814
-90.318
-86.644
-82.378
-78.225
-74.583
-71.688
-69.631
-68.355
-67.841
-68.097
-69.05
-70.568
-72.545
-74.875
-77.467
-80.253
-83.135
-86.006
-88.755
-91.274
-93.461
-95.225
-96.505
-97.269
-97.508
-97.233
-96.471
-95.257
-93.642
-91.692
-89.468
-87.031
-84.438
-81.739
-78.988
-76.242
-73.556
-70.98
-68.55
-66.288
-64.21
-62.325
-60.635
-59.14
-57.833
-56.698
-55.725
-54.904
-54.226
-53.686
-53.274
-52.976
-52.781
-52.676
-52.649
-52.69
-52.788
-52.931
-53.111
-53.316
-53.537
-53.767
-53.996
-54.212
-54.404
-54.561
-54.673
-54.728
-54.719
-54.635
-54.469
-54.213
-53.864
-53.416
-52.866
-52.212
-51.451
-50.584
-49.61
-48.53
-47.347
-46.065
-44.685
-43.213
-41.654
-40.014
-38.298
-36.513
-34.666
-32.764
-30.816
-28.828
-26.809
-24.768
-22.714
-20.655
-18.601
-16.56
-14.54
-12.551
-10.601
-8.696
-6.846
-5.056
-3.334
-1.685
-0.114
1.374
2.774
4.084
5.3
6.42
7.444
8.37
9.199
9.929
10.563
11.102
11.547
11.9
12.164
12.343
12.439
12.458
12.402
12.278
12.091
11.845
11.547
11.203
10.819
10.401
9.956
9.489
9.009
8.52
8.029
7.543
7.068
6.609
6.172
5.763
5.385
5.043
4.74
4.48
4.265
4.098
3.98
3.913
3.899
3.937
4.028
4.172
4.369
4.617
4.915
5.261
5.652
6.086
6.561
7.072
7.617
8.191
8.792
9.414
10.052
10.703
11.36
12.018
12.67
13.312
13.936
14.536
15.107
15.643
16.138
16.589
16.989
17.335
17.623
17.848
18.008
18.099
18.117
18.059
17.922
17.704
17.404
17.019
16.549
15.992
15.348
14.616
13.796
12.888
11.892
10.81
9.643
8.395
7.069
5.67
4.204
2.679
1.103
-0.515
-2.165
-3.839
-5.529
-7.226
-8.921
-10.607
-12.278
-13.927
-15.546
-17.124
-18.65
-20.111
-21.498
-22.796
-23.994
-25.078
-26.033
-26.851
-27.523
-28.04
-28.394
-28.568
-28.546
-28.315
-27.872
-27.213
-26.34
-25.255
-23.967
-22.495
-20.871
-19.126
-17.28
-15.34
-13.302
-11.166
-8.934
-6.612
-4.202
-1.694
0.926
3.666
6.523
9.498
12.601
15.864
19.343
23.076
27.072
31.315
35.766
40.389
45.139
49.959
54.777
59.488
63.999
68.239
72.149
75.673
78.741
81.255
83.103
84.201
84.497
83.967
82.6
80.382
77.328
73.476
68.893
63.684
57.937
51.727
45.145
38.277
31.222
24.094
16.994
10.007
3.221
-3.286
-9.419
-15.077
-20.212
-24.766
-28.673
-31.977
-34.756
-37.17
-39.541
-42.134
-45.155
-48.881
-53.473
-58.863
-64.876
-71.043
-76.669
-81.242
-84.199
-84.925
-83.203
-79.16
-73.242
-66.498
-60.131
-55.227
-53.324
-55.978
-64.126
-78.43
-98.88
-124.524
-154.391
-185.839
-213.955
-234.346
-242.8
-238.912
-226.773
-207.354
-179.595
-136.862
-66.976
35.66
171.331
332.196
500.624
658.427
787.524
873.516
908.939
893.892
834.466
738.924
619.552
487.726
355.45
238.486
147.648
89.274
62.209
56.083
59.608
62.206
59.257
50.985
38.422
25.842
14.19
3.21
-5.899
-15.91
-27.896
-41.006
-55.418
-68.782
-78.91
-85.626
-88.815
-89.001
-87.122
-83.654
-79.069
-74.096
-69.423
-65.477
-62.484
-60.502
-59.447
-59.264
-59.93
-61.338
-63.341
-65.824
-68.666
-71.76
-75.029
-78.368
-81.639
-84.713
-87.452
-89.729
-91.465
-92.619
-93.166
-93.115
-92.488
-91.313
-89.647
-87.557
-85.108
-82.367
-79.394
-76.246
-72.988
-69.689
-66.415
-63.235
-60.197
-57.33
-54.659
-52.198
-49.955
-47.935
-46.131
-44.531
-43.125
-41.909
-40.874
-40.018
-39.335
-38.811
-38.437
-38.199
-38.087
-38.091
-38.201
-38.404
-38.691
-39.05
-39.473
-39.949
-40.469
-41.019
-41.585
-42.155
-42.715
-43.251
-43.752
-44.204
-44.596
-44.919
-45.163
-45.321
-45.387
-45.354
-45.22
-44.98
-44.634
-44.179
-43.617
-42.948
-42.173
-41.297
-40.322
-39.254
-38.096
-36.856
-35.541
-34.157
-32.712
-31.216
-29.676
-28.102
-26.504
-24.89
-23.269
-21.653
-20.049
-18.468
-16.917
-15.407
-13.945
-12.538
-11.194
-9.92
-8.719
-7.598
-6.561
-5.61
-4.748
-3.977
-3.298
-2.713
-2.22
-1.819
-1.508
-1.287
-1.152
-1.101
-1.129
-1.233
-1.409
-1.652
-1.957
-2.319
-2.733
-3.193
-3.693
-4.227
-4.79
-5.377
-5.981
-6.596
-7.218
-7.84
-8.458
-9.067
-9.662
-10.239
-10.793
-11.321
-11.821
-12.288
-12.721
-13.118
-13.476
-13.796
-14.075
-14.313
-14.51
-14.665
-14.78
-14.855
-14.89
-14.888
-14.849
-14.774
-14.666
-14.526
-14.357
-14.159
-13.935
-13.687
-13.416
-13.126
-12.819
-12.498
-12.165
-11.825
-11.48
-11.134
-10.792
-10.456
-10.13
-9.817
-9.52
-9.244
-8.99
-8.762
-8.562
-8.394
-8.262
-8.167
-8.114
-8.105
-8.141
-8.227
-8.363
-8.553
-8.798
-9.101
-9.463
-9.888
-10.377
-10.933
-11.556
-12.248
-13.009
-13.836
-14.73
-15.685
-16.697
-17.761
-18.872
-20.025
-21.214
-22.432
-23.676
-24.939
-26.217
-27.506
-28.797
-30.082
-31.35
-32.59
-33.792
-34.942
-36.026
-37.033
-37.949
-38.765
-39.473
-40.064
-40.525
-40.841
-40.994
-40.969
-40.759
-40.358
-39.759
-38.965
-37.981
-36.825
-35.529
-34.113
-32.587
-30.954
-29.206
-27.336
-25.343
-23.221
-20.965
-18.569
-16.021
-13.32
-10.473
-7.472
-4.302
-0.925
2.718
6.66
10.896
15.412
20.167
25.111
30.194
35.339
40.452
45.447
50.244
54.784
59.027
62.912
66.359
69.269
71.52
73.03
73.759
73.681
72.791
71.1
68.63
65.444
61.646
57.313
52.51
47.28
41.652
35.689
29.488
23.16
16.832
10.597
4.52
-1.348
-6.946
-12.215
-17.102
-21.585
-25.676
-29.381
-32.678
-35.511
-37.883
-39.903
-41.785
-43.845
-46.391
-49.635
-53.707
-58.717
-64.615
-71.147
-77.9
-84.156
-89.095
-92.069
-92.716
-90.904
-86.888
-81.286
-74.878
-68.966
-65.282
-65.545
-71.088
-82.597
-100.063
-122.986
-150.499
-180.749
-209.82
-232.225
-242.805
-238.199
-219.422
-189.501
-149.902
-100.107
-33.485
57.209
174.875
319.813
481.724
642.905
784.928
886.148
931.6
918.973
852.604
744.453
611.485
467.053
323.904
197.087
97.883
33.663
7.866
13.248
35.921
62.842
79.86
78.887
61.642
33.077
2.879
-20.221
-34.536
-42.186
-48.599
-58.005
-70.479
-83.911
-95.069
-102.319
-105.955
-106.726
-105.603
-103.195
-99.796
-95.951
-92.264
-89.084
-86.614
-84.922
-83.982
-83.797
-84.36
-85.584
-87.342
-89.536
-92.067
-94.848
-97.797
-100.807
-103.766
-106.569
-109.109
-111.289
-113.016
-114.229
-114.897
-115.019
-114.614
-113.712
-112.355
-110.596
-108.502
-106.14
-103.572
-100.857
-98.045
-95.191
-92.353
-89.582
-86.932
-84.437
-82.121
-79.999
-78.077
-76.358
-74.84
-73.515
-72.367
-71.384
-70.556
-69.873
-69.328
-68.913
-68.612
-68.414
-68.304
-68.27
-68.3
-68.383
-68.506
-68.657
-68.824
-68.997
-69.166
-69.32
-69.447
-69.533
-69.568
-69.539
-69.435
-69.245
-68.96
-68.571
-68.071
-67.454
-66.716
-65.852
-64.861
-63.741
-62.492
-61.114
-59.61
-57.981
-56.232
-54.367
-52.391
-50.311
-48.132
-45.864
-43.514
-41.091
-38.604
-36.064
-33.48
-30.863
-28.224
-25.574
-22.923
-20.283
-17.665
-15.079
-12.537
-10.048
-7.622
-5.27
-2.998
-0.816
1.269
3.251
5.125
6.885
8.527
10.048
11.445
12.716
13.86
14.876
15.766
16.529
17.169
17.687
18.088
18.376
18.555
18.631
18.608
18.495
18.297
18.021
17.675
17.267
16.804
16.297
15.753
15.181
14.59
13.988
13.383
12.783
12.195
11.626
11.082
10.571
10.096
9.664
9.28
8.947
8.67
8.451
8.292
8.196
8.163
8.193
8.285
8.439
8.653
8.926
9.254
9.636
10.068
10.547
11.069
11.628
12.22
12.838
13.476
14.127
14.784
15.441
16.092
16.73
17.349
17.945
18.511
19.044
19.537
19.985
20.385
20.73
21.018
21.243
21.401
21.489
21.504
21.445
21.313
21.107
20.825
20.47
20.04
19.538
18.963
18.314
17.589
16.787
15.913
14.969
13.962
12.899
11.785
10.628
9.439
8.227
6.998
5.752
4.481
3.189
1.885
0.584
-0.694
-1.928
-3.104
-4.2
-5.186
-6.044
-6.759
-7.335
-7.793
-8.141
-8.375
-8.48
-8.42
-8.18
-7.772
-7.208
-6.507
-5.698
-4.804
-3.877
-2.999
-2.218
-1.556
-1
-0.489
0.016
0.535
1.077
1.632
2.218
2.888
3.692
4.679
5.915
7.462
9.422
11.947
15.132
19.018
23.592
28.767
34.468
40.637
47.204
54.104
61.239
68.475
75.683
82.736
89.496
95.827
101.551
106.445
110.339
113.121
114.739
115.214
114.571
112.826
110.015
106.183
101.405
95.788
89.439
82.462
74.962
67.05
58.873
50.63
42.5
34.617
27.076
19.907
13.128
6.792
0.956
-4.321
-8.985
-13.036
-16.516
-19.423
-21.728
-23.467
-24.74
-25.821
-27.129
-28.899
-31.177
-33.944
-37.151
-40.791
-44.9
-49.19
-52.96
-55.716
-57.281
-57.745
-57.461
-56.558
-54.94
-52.969
-51.725
-52.335
-55.659
-62.278
-72.305
-86.003
-104.102
-125.7
-147.558
-166.434
-178.859
-183.734
-184.639
-182.899
-176.61
-160.965
-124.318
-57.288
42.621
173.915
325.837
482.703
629.325
748.922
826.888
853.933
827.122
749.68
633.199
495.826
354.753
228.798
132.215
67.203
31.368
14.74
3.544
-7.509
-19.657
-30.378
-33.988
-30.442
-23.139
-15.845
-12.635
-14.621
-20.728
-29.811
-40.415
-51.182
-60.958
-68.518
-73.22
-75.111
-74.547
-72.126
-68.457
-64.108
-59.748
-56.015
-53.26
-51.58
-50.918
-51.101
-52.003
-53.532
-55.542
-57.88
-60.418
-63.048
-65.702
-68.311
-70.778
-72.986
-74.817
-76.186
-77.054
-77.405
-77.242
-76.586
-75.462
-73.913
-71.998
-69.774
-67.296
-64.618
-61.788
-58.86
-55.896
-52.956
-50.103
-47.384
-44.83
-42.462
-40.295
-38.335
-36.583
-35.035
-33.68
-32.507
-31.51
-30.682
-30.017
-29.508
-29.144
-28.911
-28.797
-28.79
-28.877
-29.046
-29.287
-29.587
-29.935
-30.319
-30.731
-31.157
-31.584
-32
-32.389
-32.738
-33.034
-33.264
-33.416
-33.479
-33.444
-33.301
-33.045
-32.669
-32.168
-31.54
-30.782
-29.894
-28.877
-27.732
-26.463
-25.074
-23.569
-21.955
-20.239
-18.429
-16.535
-14.565
-12.531
-10.444
-8.315
-6.158
-3.984
-1.806
0.362
2.507
4.617
6.68
8.682
10.612
12.459
14.211
15.859
17.393
18.807
20.092
21.243
22.255
23.125
23.849
24.427
24.858
25.142
25.281
25.277
25.134
24.855
24.447
23.914
23.264
22.504
21.642
20.687
19.649
18.537
17.36
16.13
14.857
13.55
12.221
10.88
9.537
8.202
6.886
5.597
4.344
3.137
1.982
0.887
-0.142
-1.1
-1.982
-2.785
-3.505
-4.141
-4.69
-5.153
-5.53
-5.82
-6.026
-6.15
-6.194
-6.162
-6.057
-5.885
-5.65
-5.356
-5.01
-4.618
-4.184
-3.714
-3.216
-2.694
-2.156
-1.607
-1.056
-0.508
0.03
0.55
1.046
1.512
1.941
2.329
2.671
2.963
3.201
3.381
3.501
3.558
3.551
3.478
3.336
3.126
2.845
2.494
2.073
1.582
1.022
0.391
-0.308
-1.075
-1.91
-2.811
-3.778
-4.809
-5.902
-7.054
-8.26
-9.516
-10.815
-12.15
-13.514
-14.9
-16.299
-17.704
-19.11
-20.509
-21.895
-23.265
-24.613
-25.933
-27.219
-28.463
-29.657
-30.791
-31.855
-32.841
-33.737
-34.53
-35.211
-35.771
-36.201
-36.491
-36.628
-36.596
-36.381
-35.977
-35.381
-34.593
-33.619
-32.463
-31.139
-29.675
-28.094
-26.421
-24.677
-22.865
-20.988
-19.051
-17.059
-15.019
-12.929
-10.768
-8.511
-6.145
-3.651
-1.014
1.791
4.817
8.107
11.689
15.581
19.771
24.234
28.944
33.866
38.942
44.099
49.232
54.225
58.988
63.436
67.487
71.056
74.028
76.296
77.78
78.406
78.125
76.908
74.729
71.587
67.526
62.609
56.939
50.641
43.812
36.55
28.964
21.167
13.304
5.523
-2.051
-9.268
-15.95
-21.999
-27.388
-32.167
-36.493
-40.498
-44.242
-47.81
-51.314
-54.669
-57.627
-59.838
-60.809
-60.267
-58.3
-55.173
-51.243
-47.111
-43.503
-41.132
-40.859
-43.176
-47.951
-54.722
-62.893
-71.905
-81.4
-91.199
-101.218
-111.713
-123.389
-137.427
-153.561
-169.315
-182.246
-189.641
-192.142
-194.683
-197.77
-197.19
-182.574
-138.324
-57.38
57.605
196.287
343.672
489.618
626.139
745.478
836.998
885.551
883.016
827.431
725.06
595.26
455.257
323.027
217.86
144.315
101.918
83.957
73.715
63.372
50.961
37.096
28.359
26.022
26.508
26.43
21.834
11.531
-2.977
-20.072
-38.046
-55.323
-70.628
-82.84
-91.41
-96.422
-98.334
-97.805
-95.486
-92.008
-88.063
-84.279
-81.066
-78.628
-77.008
-76.152
-76.013
-76.547
-77.673
-79.295
-81.324
-83.672
-86.261
-89.02
-91.854
-94.664
-97.343
-99.783
-101.883
-103.548
-104.717
-105.356
-105.458
-105.035
-104.113
-102.725
-100.921
-98.765
-96.318
-93.641
-90.793
-87.822
-84.786
-81.743
-78.749
-75.859
-73.112
-70.533
-68.14
-65.943
-63.946
-62.152
-60.552
-59.134
-57.887
-56.803
-55.875
-55.098
-54.465
-53.963
-53.581
-53.307
-53.131
-53.041
-53.029
-53.082
-53.19
-53.344
-53.534
-53.753
-53.991
-54.237
-54.478
-54.704
-54.904
-55.065
-55.179
-55.235
-55.225
-55.141
-54.979
-54.735
-54.404
-53.984
-53.473
-52.872
-52.179
-51.396
-50.525
-49.566
-48.524
-47.4
-46.201
-44.93
-43.592
-42.192
-40.738
-39.235
-37.69
-36.109
-34.5
-32.87
-31.226
-29.577
-27.93
-26.292
-24.672
-23.077
-21.513
-19.989
-18.51
-17.082
-15.709
-14.395
-13.144
-11.958
-10.841
-9.794
-8.819
-7.916
-7.087
-6.331
-5.649
-5.041
-4.504
-4.039
-3.644
-3.316
-3.055
-2.858
-2.723
-2.647
-2.628
-2.662
-2.746
-2.876
-3.048
-3.257
-3.498
-3.768
-4.06
-4.371
-4.696
-5.032
-5.373
-5.716
-6.058
-6.396
-6.726
-7.046
-7.353
-7.644
-7.916
-8.168
-8.396
-8.6
-8.778
-8.927
-9.046
-9.134
-9.189
-9.208
-9.192
-9.139
-9.048
-8.918
-8.75
-8.544
-8.302
-8.026
-7.717
-7.38
-7.017
-6.631
-6.227
-5.808
-5.376
-4.936
-4.491
-4.045
-3.602
-3.165
-2.738
-2.326
-1.932
-1.561
-1.217
-0.905
-0.629
-0.393
-0.202
-0.062
0.023
0.048
0.009
-0.101
-0.284
-0.546
-0.888
-1.313
-1.82
-2.409
-3.078
-3.822
-4.638
-5.518
-6.46
-7.455
-8.5
-9.587
-10.711
-11.867
-13.048
-14.249
-15.461
-16.673
-17.874
-19.052
-20.196
-21.291
-22.324
-23.278
-24.139
-24.896
-25.536
-26.045
-26.407
-26.599
-26.604
-26.414
-26.02
-25.42
-24.613
-23.6
-22.393
-21.017
-19.496
-17.851
-16.094
-14.221
-12.232
-10.131
-7.921
-5.61
-3.193
-0.644
2.052
4.902
7.916
11.101
14.486
18.125
22.056
26.302
30.857
35.683
40.747
46.016
51.436
56.947
62.459
67.849
73.021
77.906
82.425
86.507
90.051
92.922
95.023
96.288
96.677
96.182
94.787
92.473
89.263
85.213
80.405
74.959
68.962
62.478
55.598
48.419
41.068
33.708
26.458
19.4
12.607
6.143
0.098
-5.411
-10.304
-14.559
-18.188
-21.254
-23.775
-25.708
-27.106
-28.148
-29.148
-30.456
-32.266
-34.535
-37.208
-40.463
-44.447
-49.082
-53.88
-58.019
-60.941
-62.672
-63.479
-63.258
-61.824
-59.307
-56.559
-55.232
-56.733
-61.711
-70.33
-82.979
-100.276
-121.16
-142.298
-159.771
-169.366
-170.724
-167.902
-160.996
-147.707
-121.146
-68.227
15.997
130.446
269.561
418.916
567.218
703.824
815.462
890.852
917.803
889.563
807.877
684.856
541.95
400.356
280.523
193.998
139.362
110.723
95.728
82.153
66.77
49.646
34.302
25.769
23.318
23.588
23.22
18.971
10.405
-1.098
-14.319
-28.015
-41.002
-52.304
-60.969
-66.504
-69.07
-69.132
-67.283
-64.121
-60.212
-56.181
-52.661
-50.033
-48.421
-47.815
-48.09
-49.143
-50.912
-53.275
-56.088
-59.222
-62.554
-65.996
-69.48
-72.898
-76.129
-79.047
-81.523
-83.477
-84.876
-85.697
-85.946
-85.646
-84.823
-83.527
-81.824
-79.777
-77.449
-74.901
-72.183
-69.357
-66.49
-63.646
-60.893
-58.278
-55.829
-53.572
-51.519
-49.676
-48.05
-46.634
-45.414
-44.384
-43.534
-42.859
-42.355
-42.013
-41.823
-41.773
-41.848
-42.039
-42.334
-42.722
-43.192
-43.734
-44.335
-44.987
-45.678
-46.399
-47.136
-47.875
-48.602
-49.303
-49.965
-50.575
-51.121
-51.591
-51.975
-52.265
-52.454
-52.534
-52.502
-52.352
-52.083
-51.692
-51.178
-50.544
-49.789
-48.916
-47.93
-46.833
-45.632
-44.332
-42.94
-41.463
-39.909
-38.288
-36.609
-34.882
-33.117
-31.325
-29.518
-27.707
-25.904
-24.119
-22.364
-20.651
-18.989
-17.39
-15.864
-14.418
-13.062
-11.802
-10.646
-9.598
-8.663
-7.845
-7.146
-6.57
-6.115
-5.785
-5.576
-5.489
-5.521
-5.669
-5.931
-6.3
-6.773
-7.343
-8.004
-8.75
-9.571
-10.461
-11.41
-12.409
-13.449
-14.52
-15.612
-16.715
-17.819
-18.915
-19.993
-21.044
-22.059
-23.029
-23.948
-24.809
-25.605
-26.331
-26.982
-27.554
-28.043
-28.446
-28.762
-28.99
-29.128
-29.178
-29.139
-29.013
-28.803
-28.511
-28.14
-27.696
-27.183
-26.606
-25.973
-25.289
-24.564
-23.804
-23.02
-22.219
-21.41
-20.602
-19.804
-19.024
-18.271
-17.552
-16.875
-16.246
-15.673
-15.161
-14.717
-14.347
-14.055
-13.845
-13.722
-13.689
-13.749
-13.904
-14.157
-14.508
-14.96
-15.512
-16.165
-16.919
-17.77
-18.716
-19.753
-20.876
-22.079
-23.352
-24.687
-26.075
-27.507
-28.973
-30.465
-31.973
-33.489
-35.006
-36.517
-38.013
-39.484
-40.918
-42.305
-43.633
-44.89
-46.062
-47.136
-48.098
-48.938
-49.649
-50.221
-50.644
-50.904
-50.982
-50.867
-50.553
-50.036
-49.314
-48.388
-47.263
-45.958
-44.5
-42.919
-41.232
-39.447
-37.557
-35.561
-33.461
-31.259
-28.956
-26.538
-23.987
-21.292
-18.45
-15.456
-12.295
-8.931
-5.305
-1.373
2.878
7.433
12.254
17.303
22.535
27.891
33.296
38.644
43.835
48.792
53.455
57.766
61.65
65.004
67.698
69.633
70.749
71.027
70.468
69.075
66.862
63.869
60.17
55.871
51.065
45.809
40.143
34.109
27.776
21.257
14.697
8.204
1.856
-4.295
-10.223
-15.874
-21.193
-26.143
-30.708
-34.903
-38.754
-42.211
-45.195
-47.707
-49.819
-51.743
-53.816
-56.268
-59.24
-62.916
-67.398
-72.668
-78.63
-84.813
-90.502
-95.127
-98.109
-98.945
-97.488
-93.727
-87.858
-80.803
-73.739
-67.798
-64.706
-66.118
-73.049
-86.62
-106.582
-130.333
-155.568
-179.68
-200.792
-220.64
-239.413
-253.535
-256.608
-237.025
-184.391
-96.71
22.996
165.553
317.934
471.286
613.909
732.234
815.98
853.338
841.422
785.652
692.012
573.68
443.255
312.625
198.419
110.339
51.539
20.496
8.196
7.045
13.59
23.719
32.515
34.98
26.162
6.103
-18.158
-39.665
-54.241
-61.787
-67.156
-73.868
-82.199
-90.755
-96.99
-99.821
-99.821
-97.807
-94.642
-90.865
-86.861
-83.204
-80.303
-78.31
-77.234
-76.967
-77.449
-78.674
-80.566
-82.983
-85.781
-88.826
-92.021
-95.298
-98.537
-101.6
-104.353
-106.657
-108.432
-109.64
-110.255
-110.279
-109.729
-108.631
-107.031
-104.998
-102.591
-99.874
-96.908
-93.746
-90.453
-87.098
-83.746
-80.468
-77.311
-74.309
-71.484
-68.854
-66.425
-64.202
-62.183
-60.353
-58.707
-57.237
-55.937
-54.804
-53.829
-53.002
-52.31
-51.74
-51.28
-50.919
-50.645
-50.447
-50.313
-50.233
-50.196
-50.194
-50.216
-50.25
-50.281
-50.297
-50.285
-50.232
-50.127
-49.957
-49.713
-49.385
-48.966
-48.449
-47.829
-47.103
-46.267
-45.319
-44.259
-43.087
-41.805
-40.415
-38.923
-37.333
-35.651
-33.885
-32.044
-30.135
-28.17
-26.157
-24.107
-22.032
-19.943
-17.851
-15.767
-13.704
-11.674
-9.687
-7.755
-5.889
-4.1
-2.398
-0.791
0.712
2.103
3.376
4.526
5.547
6.435
7.188
7.803
8.28
8.618
8.819
8.884
8.816
8.62
8.3
7.861
7.311
6.654
5.9
5.055
4.128
3.129
2.065
0.948
-0.213
-1.408
-2.626
-3.856
-5.089
-6.313
-7.519
-8.698
-9.84
-10.936
-11.978
-12.958
-13.869
-14.703
-15.454
-16.118
-16.688
-17.162
-17.535
-17.807
-17.974
-18.037
-17.995
-17.849
-17.6
-17.25
-16.802
-16.257
-15.621
-14.898
-14.093
-13.212
-12.263
-11.253
-10.19
-9.082
-7.939
-6.768
-5.579
-4.38
-3.181
-1.989
-0.814
0.336
1.451
2.524
3.546
4.509
5.405
6.228
6.97
7.627
8.193
8.662
9.032
9.297
9.455
9.503
9.437
9.258
8.964
8.556
8.038
7.411
6.682
5.856
4.941
3.946
2.879
1.75
0.567
-0.659
-1.92
-3.206
-4.507
-5.814
-7.114
-8.396
-9.645
-10.846
-11.984
-13.043
-14.007
-14.862
-15.592
-16.186
-16.632
-16.919
-17.036
-16.971
-16.709
-16.234
-15.533
-14.597
-13.425
-12.019
-10.389
-8.554
-6.533
-4.349
-2.021
0.441
3.033
5.763
8.638
11.667
14.847
18.162
21.597
25.138
28.775
32.503
36.327
40.266
44.342
48.59
53.026
57.649
62.431
67.317
72.237
77.11
81.867
86.458
90.839
94.967
98.804
102.316
105.454
108.157
110.346
111.921
112.8
112.933
112.307
110.942
108.888
106.225
103.028
99.38
95.355
91.018
86.431
81.643
76.717
71.739
66.817
62.089
57.682
53.687
50.157
47.125
44.583
42.485
40.778
39.376
38.17
37.064
35.962
34.771
33.424
31.816
29.743
27.004
23.477
19.197
14.378
9.275
4.092
-0.906
-5.248
-8.454
-10.275
-10.949
-11.196
-11.832
-13.669
-17.534
-24.436
-35.558
-50.217
-65.523
-78.679
-86.489
-89.431
-92.338
-94.911
-93.93
-81.496
-42.707
28.457
131.217
261.045
402.692
542.236
666.535
758.123
806.353
806.669
760.993
681.067
579.597
467.038
351.75
240.967
144.233
69.267
20.476
-4.339
-15.37
-19.93
-21.772
-21.332
-14.42
-1.242
14.43
29.269
39.415
43.493
42.268
36.249
26.527
15.004
3.64
-5.96
-12.876
-16.968
-18.349
-17.022
-13.281
-7.933
-2.109
3.229
7.584
10.833
12.975
13.922
13.628
12.266
10.21
7.824
5.322
2.8
0.3
-2.074
-4.157
-5.85
-7.123
-7.983
-8.443
-8.495
-8.116
-7.308
-6.111
-4.573
-2.749
-0.684
1.584
4.007
6.529
9.088
11.62
14.075
16.419
18.627
20.682
22.574
24.296
25.849
27.244
28.49
29.597
30.572
31.42
32.146
32.761
33.276
33.701
34.048
34.323
34.536
34.694
34.805
34.876
34.912
34.918
34.901
34.868
34.827
34.788
34.758
34.746
34.76
34.807
34.895
35.028
35.213
35.452
35.75
36.109
36.53
37.016
37.566
38.179
38.854
39.589
40.382
41.229
42.126
43.068
44.052
45.071
46.119
47.192
48.281
49.379
50.48
51.576
52.658
53.719
54.751
55.744
56.693
57.588
58.423
59.19
59.884
60.497
61.024
61.46
61.8
62.04
62.177
62.208
62.131
61.945
61.648
61.241
60.725
60.1
59.368
58.532
57.593
56.555
55.423
54.2
52.891
51.502
50.04
48.51
46.92
45.277
43.589
41.863
40.107
38.328
36.535
34.735
32.936
31.145
29.37
27.618
25.897
24.212
22.57
20.978
19.439
17.96
16.545
15.196
13.919
12.714
11.585
10.534
9.561
8.667
7.851
7.113
6.45
5.861
5.341
4.888
4.496
4.16
3.874
3.634
3.432
3.262
3.116
2.989
2.871
2.757
2.636
2.503
2.348
2.163
1.941
1.673
1.352
0.968
0.516
-0.012
-0.624
-1.326
-2.124
-3.025
-4.034
-5.156
-6.395
-7.756
-9.239
-10.848
-12.583
-14.444
-16.43
-18.539
-20.768
-23.113
-25.569
-28.132
-30.795
-33.552
-36.394
-39.314
-42.303
-45.351
-48.447
-51.581
-54.741
-57.914
-61.088
-64.248
-67.381
-70.473
-73.509
-76.474
-79.355
-82.134
-84.798
-87.332
-89.721
-91.95
-94.007
-95.879
-97.555
-99.024
-100.279
-101.311
-102.115
-102.686
-103.02
-103.115
-102.969
-102.584
-101.96
-101.1
-100.011
-98.697
-97.17
-95.438
-93.514
-91.413
-89.152
-86.751
-84.229
-81.611
-78.921
-76.187
-73.436
-70.694
-67.99
-65.349
-62.798
-60.36
-58.06
-55.916
-53.951
-52.183
-50.631
-49.309
-48.227
-47.388
-46.791
-46.439
-46.334
-46.481
-46.892
-47.574
-48.532
-49.783
-51.336
-53.199
-55.369
-57.817
-60.511
-63.424
-66.539
-69.855
-73.369
-77.049
-80.853
-84.726
-88.593
-92.409
-96.103
-99.536
-102.655
-105.478
-108.104
-110.816
-113.889
-117.466
-121.763
-126.992
-133.057
-139.739
-146.594
-152.712
-157.345
-159.931
-159.693
-156.13
-149.411
-139.955
-128.694
-117.329
-107.345
-100.295
-98.299
-102.951
-114.796
-134.024
-160.155
-191.427
-225.929
-260.146
-288.248
-306.165
-311.485
-303.347
-283.662
-250.904
-200.882
-130.718
-36.998
78.093
207.675
345.593
482.158
606.35
707.613
772.388
789.604
755.965
672.605
549.646
406.263
260.71
133.765
40.999
-16.904
-43.458
-49.583
-48.884
-43.436
-35.588
-28.005
-19.935
-18.166
-25.959
-39.137
-55.415
-69.43
-78.407
-85.771
-92.943
-100.608
-108.455
-113.979
-116.276
-115.772
-113.038
-109.073
-104.559
-99.9
-95.661
-92.226
-89.727
-88.157
-87.394
-87.353
-87.998
-89.242
-90.95
-92.978
-95.198
-97.532
-99.929
-102.285
-104.481
-106.397
-107.906
-108.944
-109.487
-109.511
-109.013
-108.009
-106.52
-104.592
-102.29
-99.669
-96.79
-93.706
-90.467
-87.131
-83.763
-80.422
-77.17
-74.049
-71.084
-68.299
-65.708
-63.316
-61.129
-59.141
-57.34
-55.72
-54.273
-52.994
-51.879
-50.92
-50.106
-49.427
-48.871
-48.427
-48.085
-47.836
-47.67
-47.577
-47.548
-47.574
-47.647
-47.759
-47.897
-48.05
-48.205
-48.352
-48.477
-48.571
-48.622
-48.62
-48.556
-48.422
-48.212
-47.92
-47.541
-47.071
-46.508
-45.848
-45.092
-44.238
-43.288
-42.243
-41.107
-39.882
-38.572
-37.183
-35.722
-34.193
-32.603
-30.961
-29.274
-27.55
-25.799
-24.027
-22.246
-20.464
-18.691
-16.937
-15.211
-13.523
-11.882
-10.297
-8.777
-7.329
-5.962
-4.681
-3.492
-2.402
-1.415
-0.535
0.234
0.891
1.434
1.86
2.172
2.368
2.45
2.422
2.284
2.042
1.698
1.259
0.729
0.114
-0.58
-1.345
-2.174
-3.059
-3.992
-4.964
-5.966
-6.991
-8.027
-9.066
-10.1
-11.118
-12.113
-13.076
-13.999
-14.875
-15.696
-16.455
-17.148
-17.769
-18.314
-18.778
-19.159
-19.454
-19.663
-19.784
-19.817
-19.765
-19.628
-19.408
-19.11
-18.736
-18.292
-17.782
-17.212
-16.59
-15.921
-15.213
-14.475
-13.714
-12.939
-12.159
-11.382
-10.618
-9.876
-9.164
-8.491
-7.867
-7.298
-6.792
-6.358
-6.001
-5.728
-5.543
-5.453
-5.461
-5.57
-5.783
-6.101
-6.525
-7.056
-7.691
-8.428
-9.266
-10.199
-11.223
-12.331
-13.518
-14.775
-16.095
-17.467
-18.884
-20.333
-21.805
-23.288
-24.77
-26.239
-27.682
-29.086
-30.439
-31.726
-32.935
-34.053
-35.068
-35.967
-36.737
-37.368
-37.847
-38.166
-38.313
-38.28
-38.057
-37.64
-37.021
-36.197
-35.165
-33.924
-32.474
-30.816
-28.952
-26.888
-24.629
-22.179
-19.549
-16.747
-13.784
-10.673
-7.43
-4.07
-0.614
2.921
6.512
10.136
13.768
17.383
20.952
24.45
27.849
31.125
34.251
37.203
39.956
42.489
44.785
46.825
48.594
50.071
51.243
52.102
52.646
52.879
52.801
52.409
51.697
50.659
49.29
47.591
45.554
43.171
40.439
37.364
33.976
30.323
26.444
22.373
18.125
13.701
9.125
4.449
-0.271
-4.957
-9.546
-14.005
-18.245
-22.147
-25.693
-28.929
-32.041
-35.387
-39.218
-43.674
-48.936
-55.065
-61.934
-69.353
-76.749
-83.214
-88.046
-90.606
-90.342
-87.201
-81.457
-73.523
-64.517
-56.043
-49.58
-46.811
-49.47
-58.533
-74.348
-97.188
-125.401
-155.277
-183.574
-206.458
-221.798
-231.98
-237.692
-235.787
-220.641
-182.039
-111.702
-10.099
117.906
264.86
420.119
573.348
711.993
817.283
871.886
867.763
805.436
696.977
563.337
421.414
286.153
171.64
82.901
23.094
-7.48
-17.203
-12.601
-0.186
11.589
19.658
20.894
14.082
3.391
-8.378
-18.219
-25.161
-32.517
-41.829
-53.444
-66.347
-77.351
-84.985
-89.302
-90.619
-89.907
-87.919
-85.006
-81.808
-79.036
-77.029
-75.905
-75.663
-76.176
-77.373
-79.239
-81.657
-84.462
-87.536
-90.772
-94.1
-97.478
-100.802
-103.947
-106.796
-109.224
-111.165
-112.588
-113.469
-113.803
-113.604
-112.893
-111.713
-110.127
-108.19
-105.959
-103.488
-100.825
-98.032
-95.174
-92.313
-89.515
-86.826
-84.274
-81.886
-79.678
-77.66
-75.837
-74.208
-72.762
-71.494
-70.4
-69.477
-68.721
-68.126
-67.683
-67.382
-67.212
-67.162
-67.223
-67.386
-67.64
-67.976
-68.383
-68.851
-69.372
-69.935
-70.528
-71.138
-71.749
-72.35
-72.927
-73.466
-73.956
-74.384
-74.74
-75.014
-75.199
-75.286
-75.269
-75.143
-74.903
-74.546
-74.069
-73.472
-72.754
-71.917
-70.961
-69.89
-68.708
-67.42
-66.03
-64.546
-62.974
-61.322
-59.599
-57.813
-55.973
-54.091
-52.176
-50.238
-48.289
-46.338
-44.396
-42.475
-40.583
-38.732
-36.93
-35.186
-33.51
-31.908
-30.389
-28.959
-27.623
-26.388
-25.257
-24.235
-23.325
-22.528
-21.847
-21.282
-20.834
-20.502
-20.285
-20.18
-20.186
-20.299
-20.514
-20.827
-21.232
-21.724
-22.295
-22.939
-23.649
-24.418
-25.237
-26.098
-26.995
-27.918
-28.859
-29.811
-30.766
-31.715
-32.65
-33.566
-34.453
-35.305
-36.117
-36.881
-37.593
-38.247
-38.837
-39.361
-39.812
-40.189
-40.488
-40.707
-40.844
-40.897
-40.868
-40.757
-40.564
-40.293
-39.945
-39.525
-39.037
-38.484
-37.872
-37.205
-36.488
-35.726
-34.927
-34.094
-33.235
-32.355
-31.461
-30.56
-29.658
-28.761
-27.876
-27.009
-26.166
-25.354
-24.577
-23.843
-23.156
-22.522
-21.948
-21.437
-20.995
-20.624
-20.327
-20.106
-19.96
-19.89
-19.892
-19.963
-20.097
-20.292
-20.542
-20.841
-21.185
-21.567
-21.984
-22.431
-22.902
-23.391
-23.888
-24.383
-24.864
-25.322
-25.743
-26.113
-26.419
-26.648
-26.789
-26.836
-26.777
-26.599
-26.287
-25.822
-25.19
-24.382
-23.393
-22.217
-20.854
-19.313
-17.611
-15.78
-13.84
-11.801
-9.667
-7.428
-5.077
-2.612
-0.026
2.687
5.535
8.53
11.677
14.967
18.412
22.029
25.857
29.96
34.37
39.087
44.096
49.359
54.828
60.45
66.149
71.829
77.405
82.797
87.945
92.81
97.333
101.436
105.021
107.968
110.195
111.661
112.341
112.229
111.34
109.697
107.367
104.458
101.052
97.215
92.995
88.419
83.55
78.475
73.304
68.157
63.125
58.269
53.635
49.28
45.256
41.611
38.36
35.474
32.928
30.75
29
27.682
26.697
25.819
24.701
23.065
20.732
17.516
13.272
7.992
1.889
-4.437
-10.06
-14.114
-15.896
-14.846
-10.681
-3.352
6.697
18.149
29.206
38.059
42.715
41.392
32.828
15.705
-9.136
-37.768
-66.394
-90.984
-110.096
-127.659
-144.668
-157.606
-158.592
-131.693
-64.776
45.136
194.565
368.73
549.173
719.053
860.454
959.129
1005.788
996.876
936.727
837.604
716.324
589.376
472
373.719
297.359
242.493
205.566
183.612
175.323
178.88
190.144
200.865
202.734
190.876
166.51
137.857
112.986
95.768
85.384
76.809
66.392
53.979
41.425
31.388
25.035
21.946
21.364
22.536
25.008
28.427
32.263
36.116
39.824
43.335
46.63
49.642
52.276
54.514
56.426
58.082
59.499
60.656
61.521
62.105
62.478
62.704
62.808
62.789
62.61
62.264
61.797
61.249
60.636
59.957
59.203
58.38
57.536
56.731
55.997
55.339
54.746
54.209
53.748
53.4
53.211
53.201
53.364
53.694
54.19
54.858
55.691
56.661
57.707
58.758
59.771
60.725
61.607
62.407
63.105
63.675
64.098
64.372
64.499
64.481
64.32
64.013
63.571
63.02
62.397
61.747
61.1
60.478
59.895
59.369
58.912
58.539
58.256
58.063
57.96
57.953
58.045
58.241
58.543
58.946
59.443
60.026
60.688
61.422
62.224
63.085
64.001
64.965
65.974
67.026
68.114
69.233
70.375
71.532
72.694
73.854
75.002
76.128
77.224
78.28
79.29
80.244
81.137
81.961
82.71
83.378
83.96
84.451
84.846
85.143
85.339
85.431
85.419
85.301
85.077
84.748
84.315
83.778
83.14
82.404
81.571
80.646
79.631
78.53
77.349
76.092
74.764
73.37
71.917
70.412
68.861
67.27
65.646
63.996
62.327
60.644
58.954
57.263
55.577
53.9
52.238
50.597
48.98
47.393
45.838
44.32
42.842
41.406
40.015
38.672
37.377
36.132
34.938
33.796
32.706
31.668
30.682
29.748
28.863
28.028
27.239
26.495
25.793
25.13
24.501
23.904
23.335
22.789
22.263
21.753
21.254
20.765
20.28
19.796
19.31
18.819
18.32
17.809
17.285
16.743
16.182
15.599
14.991
14.356
13.692
12.997
12.269
11.506
10.706
9.868
8.991
8.074
7.118
6.124
5.094
4.029
2.934
1.813
0.671
-0.485
-1.652
-2.823
-3.993
-5.156
-6.309
-7.446
-8.564
-9.66
-10.728
-11.763
-12.758
-13.706
-14.6
-15.43
-16.188
-16.864
-17.447
-17.927
-18.299
-18.553
-18.681
-18.672
-18.511
-18.188
-17.702
-17.053
-16.244
-15.283
-14.18
-12.951
-11.624
-10.225
-8.775
-7.297
-5.792
-4.266
-2.727
-1.182
0.357
1.887
3.425
4.988
6.59
8.247
9.97
11.784
13.738
15.868
18.197
20.737
23.467
26.354
29.374
32.492
35.659
38.813
41.855
44.676
47.194
49.326
51.003
52.147
52.64
52.383
51.296
49.318
46.425
42.612
37.859
32.172
25.588
18.182
10.091
1.472
-7.551
-16.871
-26.403
-36.05
-45.663
-55.098
-64.213
-72.88
-81.022
-88.534
-95.268
-101.172
-106.273
-110.732
-114.912
-119.155
-123.716
-128.889
-134.829
-141.486
-148.717
-156.034
-162.681
-168.02
-171.325
-171.914
-169.638
-164.699
-157.643
-149.715
-142.312
-136.797
-135.111
-139.022
-149.405
-166.883
-191.373
-221.418
-255.48
-290.645
-321.386
-343.856
-355.746
-355.56
-345.025
-321.97
-279.452
-213.232
-120.844
-6.807
116.139
239.915
361.752
480.886
598.383
705.047
780.175
804.557
764.889
663.223
521.895
369.372
233.257
133.059
70.261
36.129
17.168
-1.034
-23.514
-48.841
-72.803
-89.437
-97.914
-101.159
-102.727
-106.731
-114.577
-125.453
-138.397
-152.119
-165.51
-177.843
-188.223
-195.77
-200.24
-201.847
-200.987
-198.27
-194.31
-189.644
-184.893
-180.682
-177.341
-174.993
-173.656
-173.214
-173.576
-174.683
-176.403
-178.591
-181.117
-183.853
-186.702
-189.584
-192.38
-194.959
-197.187
-198.925
-200.092
-200.646
-200.566
-199.86
-198.552
-196.671
-194.273
-191.428
-188.202
-184.662
-180.871
-176.882
-172.761
-168.577
-164.398
-160.297
-156.323
-152.509
-148.881
-145.454
-142.236
-139.234
-136.443
-133.851
-131.451
-129.238
-127.206
-125.355
-123.678
-122.165
-120.805
-119.587
-118.502
-117.538
-116.688
-115.941
-115.288
-114.719
-114.225
-113.8
-113.433
-113.113
-112.826
-112.562
-112.306
-112.047
-111.773
-111.472
-111.134
-110.749
-110.31
-109.809
-109.24
-108.596
-107.874
-107.068
-106.176
-105.195
-104.124
-102.961
-101.708
-100.364
-98.932
-97.413
-95.811
-94.129
-92.372
-90.543
-88.649
-86.695
-84.686
-82.63
-80.534
-78.404
-76.247
-74.072
-71.885
-69.694
-67.507
-65.329
-63.168
-61.03
-58.921
-56.847
-54.813
-52.824
-50.885
-49
-47.173
-45.408
-43.707
-42.075
-40.513
-39.023
-37.607
-36.266
-35.002
-33.814
-32.702
-31.667
-30.707
-29.821
-29.008
-28.266
-27.593
-26.985
-26.439
-25.953
-25.523
-25.144
-24.814
-24.528
-24.282
-24.073
-23.895
-23.745
-23.618
-23.51
-23.416
-23.333
-23.255
-23.18
-23.102
-23.018
-22.925
-22.818
-22.695
-22.553
-22.39
-22.203
-21.991
-21.752
-21.486
-21.191
-20.869
-20.519
-20.143
-19.742
-19.319
-18.875
-18.414
-17.939
-17.454
-16.962
-16.468
-15.977
-15.492
-15.021
-14.567
-14.136
-13.733
-13.366
-13.038
-12.756
-12.526
-12.353
-12.243
-12.201
-12.231
-12.34
-12.529
-12.805
-13.168
-13.623
-14.171
-14.813
-15.551
-16.383
-17.31
-18.328
-19.436
-20.629
-21.903
-23.253
-24.671
-26.151
-27.685
-29.263
-30.876
-32.514
-34.167
-35.823
-37.471
-39.099
-40.695
-42.246
-43.738
-45.159
-46.495
-47.731
-48.855
-49.853
-50.713
-51.421
-51.967
-52.338
-52.522
-52.511
-52.295
-51.864
-51.212
-50.332
-49.219
-47.871
-46.286
-44.465
-42.409
-40.123
-37.611
-34.88
-31.938
-28.793
-25.456
-21.938
-18.253
-14.415
-10.44
-6.346
-2.155
2.112
6.431
10.779
15.129
19.454
23.725
27.913
31.989
35.928
39.701
43.283
46.648
49.772
52.636
55.22
57.511
59.492
61.147
62.464
63.433
64.055
64.336
64.276
63.875
63.125
62.018
60.552
58.726
56.534
53.968
51.025
47.71
44.058
40.117
35.934
31.553
26.996
22.279
17.432
12.506
7.573
2.715
-1.996
-6.502
-10.727
-14.568
-17.981
-21.005
-23.807
-26.691
-29.971
-33.872
-38.5
-43.924
-50.048
-56.597
-63.154
-68.982
-73.177
-75.015
-74.167
-70.594
-64.681
-57.212
-49.072
-41.7
-37.124
-37.21
-43.2
-55.9
-75.433
-101.166
-132.214
-165.554
-195.986
-219.01
-231.169
-232.293
-224.764
-207.336
-175.788
-123.848
-45.064
59.506
183.397
319.765
460.008
596.276
720.247
815.31
863.297
852.967
779.516
655.433
506.283
355.942
228.887
138.935
84.279
60.184
56.39
61.711
72.734
85.159
93.151
93.777
83.311
62.003
37.209
15.257
-0.453
-9.858
-17.603
-27.185
-38.553
-50.025
-59.048
-64.339
-66.368
-66.026
-64.108
-61.101
-57.42
-53.606
-50.104
-47.204
-44.989
-43.419
-42.519
-42.311
-42.771
-43.838
-45.407
-47.387
-49.715
-52.322
-55.127
-58.033
-60.925
-63.689
-66.219
-68.406
-70.178
-71.493
-72.325
-72.678
-72.568
-72.016
-71.068
-69.778
-68.202
-66.394
-64.405
-62.279
-60.067
-57.825
-55.606
-53.465
-51.439
-49.553
-47.824
-46.26
-44.866
-43.642
-42.578
-41.659
-40.873
-40.208
-39.656
-39.21
-38.86
-38.592
-38.393
-38.249
-38.146
-38.073
-38.019
-37.971
-37.918
-37.849
-37.756
-37.63
-37.462
-37.242
-36.958
-36.601
-36.161
-35.63
-34.999
-34.26
-33.409
-32.439
-31.35
-30.137
-28.802
-27.343
-25.763
-24.063
-22.246
-20.318
-18.283
-16.147
-13.919
-11.604
-9.213
-6.755
-4.239
-1.674
0.927
3.556
6.2
8.849
11.491
14.116
16.711
19.267
21.772
24.217
26.591
28.887
31.095
33.209
35.221
37.126
38.917
40.592
42.145
43.574
44.877
46.051
47.097
48.014
48.805
49.469
50.011
50.433
50.739
50.933
51.022
51.009
50.9
50.703
50.423
50.068
49.645
49.162
48.627
48.048
47.432
46.788
46.122
45.442
44.755
44.067
43.384
42.711
42.055
41.42
40.812
40.234
39.69
39.184
38.72
38.299
37.923
37.593
37.31
37.075
36.887
36.745
36.648
36.594
36.582
36.609
36.671
36.765
36.887
37.031
37.192
37.364
37.542
37.719
37.888
38.043
38.179
38.29
38.37
38.414
38.418
38.375
38.282
38.135
37.928
37.658
37.32
36.911
36.429
35.869
35.231
34.512
33.709
32.823
31.851
30.793
29.65
28.42
27.105
25.707
24.229
22.675
21.05
19.359
17.61
15.811
13.972
12.102
10.209
8.302
6.389
4.479
2.58
0.698
-1.16
-2.989
-4.78
-6.521
-8.204
-9.816
-11.348
-12.786
-14.119
-15.333
-16.418
-17.363
-18.164
-18.813
-19.299
-19.611
-19.732
-19.652
-19.372
-18.888
-18.2
-17.316
-16.248
-15.019
-13.668
-12.219
-10.687
-9.079
-7.392
-5.623
-3.774
-1.841
0.18
2.29
4.499
6.806
9.199
11.683
14.274
17.005
19.936
23.1
26.5
30.126
33.945
37.914
41.986
46.094
50.146
54.065
57.776
61.219
64.364
67.157
69.536
71.421
72.699
73.286
73.129
72.186
70.442
67.905
64.588
60.55
55.895
50.717
45.129
39.221
33.056
26.705
20.232
13.723
7.302
1.096
-4.779
-10.206
-15.114
-19.436
-23.076
-26.043
-28.449
-30.482
-32.462
-34.681
-37.309
-40.492
-44.339
-48.774
-53.628
-58.593
-63.13
-66.749
-69.04
-69.733
-68.794
-66.512
-63.407
-60.155
-57.635
-56.82
-58.828
-64.64
-74.966
-89.992
-109.143
-131.65
-156.554
-182.208
-206.35
-225.551
-234.906
-230.4
-210.243
-175.591
-130.845
-80.091
-23.26
44.898
132.538
246.418
385.133
535.67
677.85
789.14
850.923
855.572
805.712
710.073
583.849
444.75
307.969
189.722
102.743
50.222
30.803
36.44
51.41
63.729
66.162
54.099
32.972
10.935
-8.353
-20.682
-27.286
-33.946
-42.424
-53.426
-65.88
-75.774
-81.147
-82.136
-79.321
-73.852
-66.751
-58.686
-50.704
-44.242
-40.258
-38.793
-39.32
-41.325
-44.403
-48.258
-52.467
-56.301
-59.248
-61.342
-62.972
-64.487
-66.042
-67.611
-69.136
-70.714
-72.396
-74.059
-75.448
-76.326
-76.588
-76.245
-75.37
-74.007
-72.182
-69.955
-67.416
-64.664
-61.776
-58.806
-55.791
-52.773
-49.808
-46.944
-44.22
-41.663
-39.285
-37.092
-35.086
-33.263
-31.613
-30.13
-28.809
-27.646
-26.64
-25.785
-25.076
-24.506
-24.068
-23.749
-23.539
-23.425
-23.396
-23.442
-23.553
-23.721
-23.936
-24.186
-24.461
-24.746
-25.029
-25.296
-25.534
-25.73
-25.871
-25.945
-25.944
-25.857
-25.678
-25.399
-25.013
-24.514
-23.899
-23.164
-22.306
-21.323
-20.216
-18.986
-17.635
-16.165
-14.582
-12.891
-11.098
-9.212
-7.24
-5.194
-3.082
-0.915
1.294
3.534
5.792
8.056
10.314
12.552
14.759
16.922
19.028
21.067
23.027
24.897
26.668
28.331
29.877
31.299
32.589
33.742
34.752
35.616
36.329
36.89
37.297
37.55
37.65
37.599
37.4
37.056
36.573
35.958
35.215
34.354
33.383
32.31
31.146
29.899
28.581
27.203
25.773
24.305
22.809
21.294
19.773
18.255
16.75
15.268
13.818
12.408
11.046
9.74
8.497
7.322
6.221
5.198
4.259
3.405
2.639
1.963
1.376
0.88
0.473
0.152
-0.084
-0.239
-0.317
-0.323
-0.261
-0.139
0.039
0.266
0.534
0.835
1.162
1.508
1.864
2.223
2.578
2.922
3.248
3.549
3.82
4.055
4.249
4.395
4.49
4.529
4.509
4.425
4.274
4.053
3.761
3.394
2.952
2.433
1.838
1.165
0.414
-0.412
-1.312
-2.284
-3.324
-4.429
-5.591
-6.805
-8.063
-9.359
-10.684
-12.032
-13.394
-14.763
-16.133
-17.499
-18.855
-20.194
-21.508
-22.789
-24.028
-25.218
-26.347
-27.406
-28.384
-29.267
-30.047
-30.713
-31.254
-31.657
-31.909
-31.99
-31.89
-31.602
-31.121
-30.446
-29.582
-28.536
-27.324
-25.972
-24.498
-22.921
-21.257
-19.512
-17.702
-15.84
-13.933
-11.995
-10.028
-8.018
-5.953
-3.814
-1.563
0.831
3.413
6.245
9.359
12.782
16.529
20.594
24.978
29.668
34.629
39.821
45.19
50.651
56.116
61.479
66.604
71.363
75.631
79.266
82.164
84.236
85.397
85.593
84.776
82.913
80.002
76.062
71.121
65.257
58.58
51.219
43.351
35.125
26.668
18.127
9.635
1.32
-6.679
-14.241
-21.282
-27.695
-33.345
-38.198
-42.288
-45.75
-48.885
-51.958
-55.144
-58.69
-62.864
-67.664
-72.941
-78.337
-83.139
-86.868
-89.281
-89.872
-88.197
-84.298
-78.438
-71.321
-64.25
-58.106
-53.63
-52.242
-55.251
-63.37
-77.126
-96.344
-120.001
-147.263
-175.717
-200.742
-218.235
-225.113
-221.407
-209.68
-189.262
-156.004
-102.897
-22.882
83.759
210.703
350.161
492.909
630.689
755.548
852.273
903.441
898.269
831.26
712.08
564.299
410.316
274.668
174.956
112.072
81.664
71.065
63.444
52.592
37.318
20.705
9.804
5.391
4.295
3.068
-2.251
-12.541
-26.254
-41.885
-57.784
-72.502
-85.031
-94.466
-100.378
-102.98
-102.767
-100.364
-96.441
-91.643
-86.627
-82.017
-78.217
-75.378
-73.527
-72.601
-72.523
-73.244
-74.669
-76.667
-79.126
-81.935
-85.002
-88.253
-91.582
-94.857
-97.954
-100.742
-103.103
-104.968
-106.291
-107.043
-107.233
-106.88
-106.014
-104.691
-102.975
-100.927
-98.611
-96.085
-93.404
-90.63
-87.826
-85.052
-82.371
-79.821
-77.432
-75.224
-73.209
-71.39
-69.769
-68.339
-67.086
-66.002
-65.077
-64.306
-63.684
-63.202
-62.851
-62.62
-62.498
-62.473
-62.538
-62.684
-62.9
-63.178
-63.508
-63.882
-64.294
-64.733
-65.188
-65.648
-66.1
-66.532
-66.934
-67.295
-67.602
-67.848
-68.023
-68.119
-68.131
-68.053
-67.88
-67.607
-67.23
-66.747
-66.156
-65.457
-64.647
-63.729
-62.702
-61.569
-60.332
-58.995
-57.562
-56.037
-54.426
-52.734
-50.968
-49.135
-47.241
-45.295
-43.305
-41.279
-39.226
-37.154
-35.073
-32.991
-30.917
-28.859
-26.825
-24.823
-22.86
-20.944
-19.081
-17.277
-15.539
-13.872
-12.282
-10.772
-9.347
-8.012
-6.767
-5.616
-4.561
-3.602
-2.74
-1.976
-1.309
-0.738
-0.261
0.123
0.417
0.624
0.747
0.792
0.76
0.659
0.491
0.263
-0.021
-0.355
-0.733
-1.151
-1.6
-2.077
-2.574
-3.086
-3.606
-4.129
-4.648
-5.159
-5.656
-6.135
-6.591
-7.02
-7.419
-7.784
-8.113
-8.403
-8.652
-8.859
-9.022
-9.142
-9.218
-9.25
-9.24
-9.188
-9.097
-8.967
-8.801
-8.603
-8.373
-8.116
-7.836
-7.535
-7.219
-6.891
-6.558
-6.223
-5.892
-5.57
-5.263
-4.976
-4.714
-4.481
-4.284
-4.126
-4.012
-3.946
-3.932
-3.974
-4.074
-4.236
-4.46
-4.749
-5.104
-5.524
-6.01
-6.561
-7.174
-7.848
-8.58
-9.368
-10.206
-11.091
-12.017
-12.978
-13.967
-14.978
-16.003
-17.033
-18.059
-19.072
-20.061
-21.018
-21.93
-22.788
-23.58
-24.296
-24.923
-25.451
-25.87
-26.168
-26.335
-26.361
-26.237
-25.955
-25.506
-24.883
-24.081
-23.095
-21.922
-20.559
-19.005
-17.26
-15.326
-13.205
-10.901
-8.419
-5.766
-2.95
0.021
3.134
6.378
9.737
13.193
16.726
20.318
23.945
27.586
31.216
34.808
38.336
41.775
45.099
48.281
51.296
54.116
56.716
59.073
61.169
62.986
64.509
65.723
66.613
67.171
67.39
67.27
66.805
65.986
64.803
63.254
61.335
59.05
56.404
53.402
50.054
46.382
42.415
38.192
33.76
29.154
24.411
19.563
14.641
9.694
4.779
-0.042
-4.705
-9.157
-13.367
-17.303
-20.926
-24.264
-27.418
-30.591
-34.071
-38.142
-43
-48.713
-55.351
-62.868
-70.977
-79.206
-86.765
-92.685
-96.2
-96.936
-94.682
-89.553
-82.189
-73.505
-65.041
-58.837
-56.874
-60.689
-71.268
-89.171
-113.199
-140.221
-166.577
-187.683
-200.95
-208.546
-211.784
-209.487
-197.18
-162.143
-92.812
14.723
159.043
326.694
499.069
660.687
794.276
887.306
931.975
920.081
851.087
732.375
577.834
411.203
258.589
140.263
66.51
34.597
31.743
42.229
55.705
66.576
72.064
72.974
67.006
52.974
34.691
14.664
-3.392
-17.53
-30.597
-44.055
-58.177
-72.167
-83.556
-91.259
-95.551
-97.027
-96.613
-94.951
-92.486
-89.802
-87.343
-85.342
-83.879
-82.913
-82.43
-82.409
-82.775
-83.412
-84.211
-85.117
-86.128
-87.256
-88.473
-89.704
-90.863
-91.881
-92.709
-93.308
-93.625
-93.617
-93.271
-92.624
-91.768
-90.788
-89.738
-88.644
-87.501
-86.292
-85.024
-83.716
-82.38
-81.034
-79.69
-78.361
-77.081
-75.876
-74.75
-73.681
-72.612
-71.491
-70.303
-69.053
-67.767
-66.49
-65.248
-64.064
-62.968
-61.977
-61.102
-60.349
-59.704
-59.149
-58.683
-58.31
-58.05
-57.919
-57.915
-58.028
-58.235
-58.505
-58.813
-59.133
-59.434
-59.693
-59.893
-60.02
-60.07
-60.045
-59.94
-59.748
-59.462
-59.073
-58.574
-57.966
-57.248
-56.422
-55.492
-54.461
-53.337
-52.126
-50.834
-49.466
-48.026
-46.516
-44.94
-43.304
-41.615
-39.88
-38.108
-36.307
-34.487
-32.66
-30.836
-29.024
-27.235
-25.478
-23.762
-22.096
-20.488
-18.947
-17.479
-16.091
-14.79
-13.581
-12.469
-11.457
-10.551
-9.751
-9.061
-8.482
-8.014
-7.657
-7.411
-7.273
-7.242
-7.316
-7.49
-7.76
-8.123
-8.574
-9.106
-9.714
-10.39
-11.128
-11.919
-12.755
-13.628
-14.53
-15.452
-16.387
-17.325
-18.26
-19.183
-20.087
-20.964
-21.808
-22.611
-23.368
-24.072
-24.718
-25.301
-25.818
-26.264
-26.636
-26.932
-27.15
-27.289
-27.348
-27.328
-27.228
-27.051
-26.797
-26.47
-26.07
-25.603
-25.072
-24.481
-23.836
-23.142
-22.405
-21.633
-20.831
-20.007
-19.168
-18.323
-17.476
-16.637
-15.812
-15.009
-14.234
-13.494
-12.795
-12.144
-11.547
-11.01
-10.537
-10.135
-9.807
-9.557
-9.388
-9.305
-9.31
-9.405
-9.592
-9.873
-10.248
-10.719
-11.285
-11.943
-12.693
-13.53
-14.448
-15.443
-16.507
-17.63
-18.806
-20.025
-21.278
-22.558
-23.855
-25.161
-26.469
-27.772
-29.06
-30.325
-31.554
-32.735
-33.857
-34.907
-35.874
-36.743
-37.499
-38.132
-38.633
-38.991
-39.197
-39.237
-39.091
-38.748
-38.203
-37.453
-36.499
-35.345
-33.996
-32.469
-30.792
-28.991
-27.093
-25.11
-23.039
-20.883
-18.646
-16.333
-13.955
-11.505
-8.96
-6.305
-3.532
-0.63
2.406
5.606
9.026
12.705
16.665
20.903
25.385
30.077
34.951
39.96
45.048
50.132
55.097
59.851
64.324
68.446
72.154
75.358
77.942
79.817
80.923
81.226
80.719
79.393
77.236
74.269
70.536
66.112
61.117
55.652
49.804
43.661
37.299
30.802
24.28
17.836
11.552
5.511
-0.202
-5.519
-10.341
-14.542
-18.095
-21.068
-23.628
-26.071
-28.652
-31.499
-34.795
-38.768
-43.362
-48.351
-53.281
-57.309
-59.824
-60.53
-58.983
-54.851
-48.361
-39.985
-30.638
-21.881
-14.881
-10.609
-10.41
-15.324
-25.951
-42.602
-64.828
-91.721
-121.412
-150.458
-175.518
-193.14
-202.836
-207.853
-208.069
-200.805
-178.768
-130.322
-51.443
55.294
182.242
317.79
454.377
584.456
698.379
784.112
827.104
820.465
765.198
668.933
547.183
413.696
281.716
167.41
81.339
28.409
7.103
5.182
9.131
11.689
10.218
7.783
9.03
13.533
18.422
20.784
17.923
9.852
-1.703
-15.143
-28.735
-40.912
-50.593
-57.235
-60.821
-61.708
-60.504
-57.844
-54.326
-50.634
-47.407
-44.975
-43.453
-42.82
-42.933
-43.687
-45.016
-46.793
-48.883
-51.189
-53.619
-56.119
-58.659
-61.145
-63.475
-65.543
-67.234
-68.483
-69.265
-69.554
-69.35
-68.67
-67.536
-65.988
-64.085
-61.874
-59.405
-56.726
-53.877
-50.911
-47.884
-44.852
-41.875
-38.996
-36.24
-33.633
-31.187
-28.912
-26.811
-24.883
-23.116
-21.504
-20.044
-18.731
-17.563
-16.535
-15.639
-14.866
-14.207
-13.652
-13.193
-12.821
-12.526
-12.301
-12.135
-12.02
-11.95
-11.914
-11.903
-11.905
-11.908
-11.901
-11.871
-11.808
-11.701
-11.538
-11.311
-11.011
-10.632
-10.168
-9.612
-8.962
-8.213
-7.364
-6.414
-5.363
-4.212
-2.962
-1.617
-0.18
1.344
2.948
4.627
6.373
8.178
10.032
11.928
13.855
15.803
17.761
19.72
21.668
23.594
25.488
27.338
29.133
30.864
32.519
34.09
35.568
36.944
38.211
39.363
40.394
41.299
42.074
42.715
43.222
43.592
43.825
43.922
43.884
43.714
43.416
42.993
42.45
41.794
41.03
40.166
39.209
38.166
37.046
35.857
34.608
33.31
31.97
30.598
29.205
27.799
26.391
24.99
23.604
22.243
20.914
19.625
18.383
17.195
16.066
15.002
14.007
13.086
12.241
11.475
10.789
10.184
9.66
9.216
8.85
8.561
8.346
8.202
8.126
8.114
8.162
8.265
8.419
8.617
8.853
9.121
9.415
9.726
10.048
10.373
10.694
11.004
11.296
11.563
11.8
12
12.156
12.264
12.318
12.313
12.243
12.105
11.894
11.608
11.245
10.802
10.277
9.669
8.977
8.2
7.338
6.39
5.357
4.239
3.039
1.759
0.403
-1.024
-2.518
-4.07
-5.672
-7.317
-8.996
-10.703
-12.428
-14.164
-15.902
-17.638
-19.364
-21.071
-22.75
-24.391
-25.982
-27.51
-28.962
-30.327
-31.59
-32.741
-33.768
-34.661
-35.416
-36.022
-36.469
-36.745
-36.832
-36.72
-36.403
-35.878
-35.145
-34.212
-33.09
-31.806
-30.389
-28.856
-27.221
-25.485
-23.641
-21.684
-19.61
-17.41
-15.089
-12.65
-10.09
-7.421
-4.649
-1.764
1.25
4.431
7.831
11.464
15.33
19.412
23.663
28.034
32.461
36.854
41.14
45.258
49.147
52.772
56.096
59.056
61.584
63.598
64.991
65.703
65.692
64.921
63.393
61.132
58.181
54.636
50.584
46.084
41.202
35.993
30.505
24.822
19.032
13.221
7.509
1.992
-3.255
-8.137
-12.598
-16.597
-20.102
-23.137
-25.75
-27.977
-29.886
-31.51
-32.841
-33.989
-35.162
-36.549
-38.391
-40.789
-43.689
-47.263
-51.745
-57.051
-62.831
-68.467
-73.147
-76.519
-78.587
-79.005
-77.561
-74.455
-70.257
-66.536
-65.266
-67.676
-74.839
-86.707
-101.359
-117.322
-132.552
-146.801
-163.144
-180.715
-195.245
-197.023
-170.976
-110.327
-16.767
101.114
228.287
355.525
478.498
590.29
682.938
744.762
762.195
731.907
659.203
553.422
430.179
302.033
178.459
72.514
-7.66
-58.707
-79.491
-79.199
-68.107
-51.169
-35.882
-23.682
-13.903
-10.897
-12.729
-17.819
-26.246
-34.27
-42.311
-51.228
-59.675
-67.542
-73.499
-76.38
-76.576
-74.605
-71.269
-67.433
-63.67
-60.504
-58.261
-57.035
-56.787
-57.357
-58.621
-60.483
-62.809
-65.463
-68.319
-71.274
-74.252
-77.183
-79.958
-82.445
-84.544
-86.19
-87.356
-88.042
-88.251
-87.992
-87.289
-86.184
-84.726
-82.959
-80.927
-78.67
-76.239
-73.691
-71.09
-68.503
-65.978
-63.554
-61.254
-59.094
-57.085
-55.231
-53.53
-51.971
-50.547
-49.254
-48.087
-47.046
-46.125
-45.315
-44.606
-43.988
-43.451
-42.987
-42.588
-42.247
-41.956
-41.709
-41.5
-41.326
-41.18
-41.053
-40.937
-40.824
-40.702
-40.564
-40.4
-40.2
-39.954
-39.656
-39.298
-38.874
-38.378
-37.805
-37.152
-36.414
-35.59
-34.678
-33.678
-32.588
-31.411
-30.147
-28.799
-27.371
-25.865
-24.286
-22.64
-20.933
-19.169
-17.357
-15.502
-13.613
-11.697
-9.761
-7.814
-5.865
-3.921
-1.992
-0.086
1.787
3.619
5.4
7.123
8.78
10.364
11.867
13.282
14.605
15.829
16.949
17.961
18.861
19.645
20.311
20.857
21.281
21.583
21.764
21.824
21.765
21.589
21.299
20.899
20.392
19.784
19.078
18.282
17.401
16.443
15.414
14.322
13.176
11.984
10.753
9.493
8.212
6.917
5.618
4.323
3.04
1.778
0.546
-0.65
-1.802
-2.901
-3.94
-4.915
-5.818
-6.643
-7.388
-8.046
-8.615
-9.091
-9.472
-9.756
-9.943
-10.033
-10.026
-9.924
-9.73
-9.448
-9.082
-8.637
-8.119
-7.532
-6.883
-6.178
-5.423
-4.626
-3.792
-2.931
-2.051
-1.159
-0.264
0.624
1.497
2.345
3.161
3.935
4.659
5.324
5.923
6.446
6.887
7.238
7.492
7.642
7.683
7.612
7.426
7.122
6.702
6.166
5.517
4.759
3.897
2.935
1.877
0.73
-0.503
-1.815
-3.199
-4.649
-6.156
-7.71
-9.299
-10.909
-12.524
-14.13
-15.712
-17.255
-18.746
-20.169
-21.51
-22.758
-23.899
-24.916
-25.792
-26.504
-27.031
-27.363
-27.492
-27.42
-27.153
-26.699
-26.063
-25.263
-24.309
-23.203
-21.939
-20.497
-18.855
-17.006
-14.949
-12.7
-10.274
-7.67
-4.885
-1.917
1.251
4.63
8.235
12.103
16.248
20.653
25.28
30.056
34.889
39.717
44.485
49.15
53.679
58.019
62.119
65.939
69.422
72.508
75.128
77.182
78.6
79.363
79.475
78.982
77.95
76.414
74.406
71.959
69.094
65.837
62.218
58.252
53.985
49.481
44.829
40.145
35.522
31.005
26.619
22.365
18.251
14.323
10.633
7.2
4.041
1.145
-1.475
-3.754
-5.714
-7.508
-9.415
-11.751
-14.677
-18.135
-22.051
-26.555
-31.748
-37.535
-43.437
-48.69
-52.825
-55.892
-58.117
-59.387
-59.471
-58.395
-56.945
-56.609
-58.539
-63.342
-71.39
-83.211
-99.478
-119.266
-139.264
-155.791
-166.448
-172.391
-176.755
-178.963
-172.531
-146.057
-90.213
-3.286
107.42
228.925
352.553
472.671
584.225
680.741
747.939
773.242
752.447
690.124
600.135
494.91
383.036
270.337
162.903
72.803
9.488
-22.988
-28.979
-23.054
-16.119
-13.54
-15.749
-17.254
-16.297
-14.696
-14.204
-17.456
-24.774
-34.407
-45.041
-55.297
-63.928
-70.193
-73.707
-74.511
-73.084
-70.136
-66.317
-62.186
-58.297
-55.124
-52.934
-51.814
-51.716
-52.484
-53.974
-56.073
-58.634
-61.508
-64.573
-67.722
-70.856
-73.88
-76.672
-79.101
-81.076
-82.54
-83.463
-83.845
-83.688
-83.012
-81.857
-80.277
-78.328
-76.066
-73.541
-70.805
-67.916
-64.938
-61.939
-58.983
-56.12
-53.387
-50.809
-48.402
-46.177
-44.138
-42.283
-40.602
-39.088
-37.738
-36.546
-35.512
-34.628
-33.887
-33.278
-32.79
-32.414
-32.141
-31.962
-31.867
-31.847
-31.895
-32.003
-32.163
-32.367
-32.603
-32.861
-33.127
-33.391
-33.641
-33.865
-34.052
-34.192
-34.277
-34.298
-34.249
-34.124
-33.918
-33.627
-33.248
-32.778
-32.217
-31.564
-30.82
-29.987
-29.067
-28.063
-26.979
-25.822
-24.596
-23.309
-21.966
-20.575
-19.144
-17.682
-16.196
-14.695
-13.189
-11.688
-10.199
-8.734
-7.301
-5.909
-4.567
-3.283
-2.066
-0.921
0.145
1.126
2.018
2.815
3.515
4.115
4.612
5.005
5.293
5.477
5.556
5.534
5.412
5.193
4.881
4.478
3.99
3.422
2.777
2.062
1.282
0.444
-0.446
-1.38
-2.353
-3.355
-4.381
-5.422
-6.472
-7.522
-8.566
-9.596
-10.606
-11.59
-12.54
-13.452
-14.319
-15.137
-15.9
-16.606
-17.249
-17.828
-18.34
-18.783
-19.156
-19.458
-19.69
-19.85
-19.94
-19.959
-19.911
-19.796
-19.615
-19.373
-19.071
-18.714
-18.304
-17.846
-17.344
-16.803
-16.229
-15.626
-15
-14.358
-13.704
-13.045
-12.388
-11.739
-11.105
-10.491
-9.904
-9.35
-8.834
-8.362
-7.939
-7.57
-7.259
-7.011
-6.828
-6.714
-6.673
-6.707
-6.819
-7.01
-7.282
-7.636
-8.073
-8.592
-9.192
-9.872
-10.629
-11.46
-12.362
-13.331
-14.36
-15.443
-16.574
-17.746
-18.951
-20.179
-21.423
-22.671
-23.915
-25.144
-26.349
-27.517
-28.638
-29.702
-30.697
-31.612
-32.438
-33.162
-33.776
-34.267
-34.627
-34.845
-34.912
-34.82
-34.559
-34.123
-33.506
-32.701
-31.706
-30.518
-29.136
-27.559
-25.789
-23.829
-21.683
-19.356
-16.853
-14.184
-11.358
-8.384
-5.277
-2.049
1.282
4.699
8.184
11.715
15.272
18.831
22.367
25.854
29.268
32.586
35.782
38.833
41.715
44.406
46.885
49.136
51.141
52.884
54.349
55.52
56.392
56.962
57.234
57.209
56.881
56.242
55.285
54.006
52.403
50.474
48.21
45.609
42.683
39.463
35.998
32.33
28.492
24.498
20.353
16.082
11.737
7.381
3.089
-1.072
-5.072
-8.83
-12.237
-15.282
-18.02
-20.639
-23.489
-26.834
-30.822
-35.64
-41.36
-47.865
-54.976
-62.164
-68.579
-73.518
-76.309
-76.373
-73.618
-68.294
-60.831
-52.312
-44.236
-38.175
-36.035
-39.448
-49.317
-66.031
-89.431
-118.558
-150.771
-181.665
-206.381
-220.023
-221.648
-214.432
-199.384
-176.441
-139.854
-77.853
15.707
142.151
294.533
455.749
607.363
731.461
814.412
849.046
835.74
779.78
687.559
570.57
440.381
310.86
200.529
120.935
77.289
65.323
70.718
80.774
85.504
81.655
71.661
57.29
42.177
27.417
12.748
-0.585
-14.473
-29.532
-44.872
-60.386
-73.821
-83.609
-89.918
-92.829
-93.069
-91.51
-88.522
-84.634
-80.569
-76.776
-73.533
-71.015
-69.216
-68.131
-67.792
-68.165
-69.158
-70.684
-72.658
-74.989
-77.603
-80.407
-83.29
-86.148
-88.868
-91.346
-93.482
-95.178
-96.371
-97.029
-97.139
-96.712
-95.774
-94.358
-92.519
-90.321
-87.828
-85.1
-82.196
-79.166
-76.067
-72.955
-69.883
-66.906
-64.061
-61.372
-58.86
-56.536
-54.405
-52.47
-50.725
-49.159
-47.764
-46.532
-45.458
-44.539
-43.767
-43.132
-42.624
-42.233
-41.947
-41.759
-41.658
-41.634
-41.676
-41.776
-41.925
-42.114
-42.333
-42.572
-42.817
-43.059
-43.285
-43.484
-43.646
-43.761
-43.82
-43.816
-43.741
-43.591
-43.361
-43.047
-42.647
-42.157
-41.578
-40.908
-40.148
-39.3
-38.366
-37.349
-36.252
-35.08
-33.839
-32.534
-31.171
-29.758
-28.301
-26.808
-25.286
-23.746
-22.194
-20.64
-19.093
-17.561
-16.055
-14.581
-13.149
-11.766
-10.44
-9.178
-7.987
-6.871
-5.836
-4.887
-4.027
-3.261
-2.59
-2.017
-1.543
-1.169
-0.894
-0.719
-0.643
-0.662
-0.776
-0.981
-1.275
-1.653
-2.113
-2.648
-3.255
-3.927
-4.659
-5.445
-6.278
-7.151
-8.057
-8.989
-9.94
-10.903
-11.871
-12.836
-13.792
-14.733
-15.651
-16.541
-17.396
-18.213
-18.985
-19.709
-20.381
-20.996
-21.552
-22.047
-22.477
-22.842
-23.14
-23.369
-23.529
-23.619
-23.639
-23.59
-23.472
-23.286
-23.034
-22.717
-22.339
-21.903
-21.411
-20.868
-20.279
-19.647
-18.979
-18.28
-17.555
-16.811
-16.052
-15.285
-14.515
-13.748
-12.989
-12.244
-11.517
-10.814
-10.14
-9.502
-8.902
-8.348
-7.842
-7.392
-7
-6.673
-6.414
-6.229
-6.121
-6.095
-6.155
-6.303
-6.543
-6.876
-7.303
-7.822
-8.433
-9.132
-9.915
-10.777
-11.714
-12.719
-13.789
-14.918
-16.1
-17.331
-18.605
-19.917
-21.259
-22.62
-23.99
-25.357
-26.71
-28.034
-29.316
-30.54
-31.692
-32.762
-33.737
-34.603
-35.344
-35.936
-36.363
-36.616
-36.685
-36.566
-36.257
-35.756
-35.075
-34.235
-33.256
-32.157
-30.947
-29.616
-28.16
-26.58
-24.875
-23.049
-21.094
-18.98
-16.69
-14.215
-11.54
-8.658
-5.535
-2.115
1.642
5.759
10.233
15.026
20.103
25.431
30.955
36.614
42.317
47.942
53.395
58.602
63.485
67.97
71.954
75.299
77.907
79.71
80.662
80.756
79.978
78.311
75.782
72.445
68.382
63.709
58.511
52.854
46.825
40.518
34.061
27.605
21.258
15.095
9.174
3.548
-1.707
-6.5
-10.778
-14.528
-17.768
-20.526
-22.783
-24.564
-25.999
-27.321
-28.885
-31.028
-33.946
-37.723
-42.438
-48.042
-54.306
-60.796
-66.71
-71.154
-73.497
-73.459
-70.983
-66.269
-59.846
-52.565
-45.949
-41.865
-41.844
-46.968
-57.897
-74.811
-97.526
-124.025
-150.046
-171.507
-184.304
-187.891
-185.862
-177.635
-160.706
-128.878
-70.326
18.474
135.452
275.388
424.482
571.467
705.89
813.714
883.088
903.549
869.097
782.462
658.359
517.94
383.844
278.159
207.92
168.808
150.603
135.849
115.935
91.031
64.193
43.164
30.828
24.288
20.003
13.662
3.479
-9.533
-24.127
-39.09
-53.489
-66.599
-77.579
-85.635
-90.481
-92.383
-91.805
-89.287
-85.398
-80.68
-75.72
-71.136
-67.327
-64.445
-62.547
-61.582
-61.477
-62.194
-63.633
-65.655
-68.14
-70.967
-74.031
-77.253
-80.522
-83.702
-86.668
-89.287
-91.439
-93.059
-94.099
-94.538
-94.392
-93.686
-92.455
-90.76
-88.667
-86.241
-83.547
-80.646
-77.591
-74.447
-71.276
-68.141
-65.102
-62.201
-59.465
-56.917
-54.564
-52.411
-50.459
-48.699
-47.118
-45.707
-44.457
-43.359
-42.411
-41.604
-40.925
-40.366
-39.912
-39.555
-39.284
-39.09
-38.965
-38.898
-38.881
-38.906
-38.966
-39.052
-39.153
-39.26
-39.36
-39.443
-39.499
-39.519
-39.493
-39.414
-39.273
-39.066
-38.788
-38.435
-38.004
-37.492
-36.898
-36.222
-35.463
-34.624
-33.704
-32.708
-31.637
-30.496
-29.288
-28.019
-26.694
-25.318
-23.897
-22.439
-20.949
-19.435
-17.904
-16.364
-14.822
-13.286
-11.764
-10.262
-8.79
-7.352
-5.958
-4.612
-3.32
-2.089
-0.922
0.175
1.199
2.147
3.016
3.804
4.508
5.128
5.663
6.113
6.477
6.756
6.952
7.066
7.099
7.054
6.933
6.739
6.475
6.145
5.753
5.303
4.8
4.248
3.652
3.018
2.35
1.653
0.934
0.196
-0.554
-1.312
-2.073
-2.83
-3.581
-4.319
-5.04
-5.741
-6.418
-7.067
-7.684
-8.268
-8.814
-9.322
-9.787
-10.209
-10.585
-10.914
-11.196
-11.428
-11.611
-11.744
-11.828
-11.863
-11.849
-11.789
-11.682
-11.531
-11.337
-11.103
-10.832
-10.526
-10.19
-9.827
-9.441
-9.038
-8.621
-8.196
-7.766
-7.336
-6.911
-6.495
-6.093
-5.709
-5.346
-5.011
-4.708
-4.441
-4.216
-4.037
-3.907
-3.832
-3.815
-3.861
-3.972
-4.152
-4.405
-4.733
-5.139
-5.626
-6.193
-6.843
-7.573
-8.382
-9.266
-10.222
-11.242
-12.323
-13.456
-14.637
-15.86
-17.117
-18.402
-19.712
-21.039
-22.376
-23.717
-25.048
-26.359
-27.638
-28.872
-30.048
-31.152
-32.167
-33.08
-33.882
-34.56
-35.102
-35.493
-35.71
-35.74
-35.574
-35.207
-34.635
-33.862
-32.887
-31.725
-30.401
-28.938
-27.36
-25.677
-23.884
-21.982
-19.973
-17.859
-15.649
-13.336
-10.895
-8.311
-5.576
-2.678
0.39
3.655
7.171
10.976
15.092
19.517
24.214
29.149
34.29
39.585
44.976
50.376
55.666
60.75
65.553
69.993
74
77.48
80.31
82.396
83.672
84.092
83.642
82.306
80.073
76.967
73.033
68.35
63.036
57.197
50.931
44.346
37.543
30.627
23.711
16.892
10.254
3.897
-2.08
-7.571
-12.493
-16.793
-20.405
-23.357
-25.76
-27.784
-29.711
-31.82
-34.305
-37.32
-40.993
-45.187
-49.625
-54.017
-57.873
-60.775
-62.415
-62.44
-60.703
-57.588
-53.735
-49.684
-46.16
-43.813
-43.39
-46.063
-52.694
-63.275
-77.437
-94.955
-115.362
-137.943
-160.202
-177.591
-186.212
-183.762
-171.405
-152.082
-125.277
-87.611
-32.797
46.002
148.941
271.488
407.436
546.804
679.918
796.825
880.987
917.388
897.823
819.581
696.065
550.78
405.695
284.174
198.779
147.509
123.905
113.876
103.44
88.77
70.147
51.935
40.196
34.759
32.307
29.327
22.495
11.425
-2.387
-17.617
-33.027
-47.49
-60.088
-69.938
-76.558
-80.089
-80.969
-79.753
-77.02
-73.318
-69.242
-65.389
-62.157
-59.738
-58.194
-57.473
-57.513
-58.266
-59.635
-61.504
-63.779
-66.361
-69.174
-72.152
-75.195
-78.202
-81.069
-83.687
-85.958
-87.79
-89.116
-89.902
-90.15
-89.876
-89.113
-87.9
-86.285
-84.331
-82.097
-79.641
-77.017
-74.272
-71.455
-68.623
-65.827
-63.119
-60.537
-58.104
-55.834
-53.737
-51.816
-50.071
-48.496
-47.078
-45.807
-44.676
-43.68
-42.815
-42.075
-41.45
-40.932
-40.509
-40.174
-39.917
-39.732
-39.608
-39.537
-39.512
-39.524
-39.569
-39.637
-39.719
-39.806
-39.887
-39.953
-39.996
-40.007
-39.977
-39.899
-39.767
-39.575
-39.318
-38.993
-38.597
-38.127
-37.582
-36.96
-36.262
-35.487
-34.638
-33.715
-32.722
-31.661
-30.537
-29.352
-28.113
-26.825
-25.493
-24.123
-22.724
-21.302
-19.864
-18.419
-16.973
-15.536
-14.115
-12.718
-11.353
-10.026
-8.746
-7.52
-6.353
-5.252
-4.223
-3.27
-2.398
-1.612
-0.915
-0.309
0.202
0.617
0.934
1.153
1.274
1.298
1.224
1.056
0.795
0.443
0.004
-0.517
-1.117
-1.791
-2.533
-3.338
-4.199
-5.11
-6.065
-7.056
-8.077
-9.121
-10.182
-11.251
-12.322
-13.388
-14.443
-15.48
-16.493
-17.474
-18.42
-19.324
-20.182
-20.989
-21.741
-22.436
-23.069
-23.638
-24.141
-24.576
-24.943
-25.239
-25.466
-25.624
-25.713
-25.735
-25.691
-25.584
-25.416
-25.19
-24.909
-24.575
-24.194
-23.769
-23.303
-22.802
-22.272
-21.716
-21.141
-20.553
-19.958
-19.361
-18.768
-18.185
-17.617
-17.069
-16.546
-16.053
-15.595
-15.175
-14.798
-14.469
-14.191
-13.969
-13.804
-13.702
-13.663
-13.691
-13.789
-13.957
-14.198
-14.514
-14.905
-15.374
-15.92
-16.543
-17.243
-18.016
-18.86
-19.77
-20.74
-21.764
-22.835
-23.946
-25.09
-26.26
-27.449
-28.65
-29.859
-31.069
-32.274
-33.465
-34.631
-35.763
-36.848
-37.876
-38.834
-39.708
-40.484
-41.151
-41.699
-42.119
-42.399
-42.525
-42.476
-42.24
-41.809
-41.179
-40.349
-39.321
-38.098
-36.696
-35.14
-33.456
-31.668
-29.786
-27.806
-25.727
-23.552
-21.283
-18.929
-16.483
-13.918
-11.216
-8.366
-5.354
-2.171
1.214
4.861
8.808
13.08
17.672
22.543
27.655
32.975
38.451
44.027
49.615
55.092
60.359
65.343
69.962
74.148
77.801
80.785
83.002
84.39
84.914
84.583
83.395
81.329
78.405
74.667
70.194
65.099
59.475
53.388
46.919
40.161
33.223
26.238
19.311
12.518
5.926
-0.404
-6.39
-11.943
-16.962
-21.352
-25.116
-28.345
-31.186
-33.86
-36.535
-39.295
-42.334
-45.924
-50.073
-54.572
-58.961
-62.529
-64.911
-66.121
-65.984
-64.163
-60.649
-55.719
-50.174
-45.277
-41.709
-39.67
-39.743
-42.815
-49.575
-60.61
-75.864
-94.732
-117.314
-142.306
-166.164
-185.51
-196.412
-198.882
-198.186
-195.127
-187.601
-167.598
-118.797
-34.005
87.069
238.957
404.106
568.297
718.114
837.344
914.541
938.283
902.867
811.905
678.528
525.159
374.362
247.415
155.913
98.119
68.616
57.793
57.33
65.203
77.4
87.135
88.625
76.77
52.232
23.488
-1.484
-18.583
-28.247
-35.836
-45.329
-56.919
-68.774
-78.111
-83.654
-85.893
-85.706
-83.945
-81.12
-77.645
-74.104
-70.967
-68.493
-66.758
-65.723
-65.398
-65.801
-66.892
-68.562
-70.678
-73.13
-75.836
-78.733
-81.738
-84.744
-87.628
-90.274
-92.578
-94.44
-95.801
-96.62
-96.876
-96.584
-95.77
-94.472
-92.749
-90.668
-88.288
-85.674
-82.882
-79.963
-76.976
-73.98
-71.031
-68.186
-65.483
-62.95
-60.607
-58.464
-56.525
-54.79
-53.251
-51.893
-50.705
-49.677
-48.8
-48.068
-47.471
-46.997
-46.632
-46.364
-46.178
-46.064
-46.01
-46.003
-46.033
-46.086
-46.155
-46.229
-46.3
-46.356
-46.385
-46.375
-46.316
-46.198
-46.011
-45.746
-45.396
-44.953
-44.414
-43.775
-43.035
-42.192
-41.247
-40.2
-39.053
-37.811
-36.476
-35.055
-33.551
-31.971
-30.324
-28.615
-26.855
-25.051
-23.213
-21.351
-19.473
-17.589
-15.71
-13.844
-12
-10.189
-8.419
-6.699
-5.037
-3.442
-1.92
-0.48
0.873
2.134
3.297
4.359
5.317
6.169
6.914
7.551
8.08
8.501
8.817
9.028
9.138
9.149
9.066
8.893
8.635
8.297
7.885
7.406
6.866
6.27
5.626
4.939
4.218
3.467
2.694
1.906
1.108
0.308
-0.488
-1.275
-2.046
-2.797
-3.521
-4.215
-4.873
-5.493
-6.069
-6.6
-7.082
-7.514
-7.892
-8.215
-8.483
-8.694
-8.848
-8.946
-8.989
-8.977
-8.912
-8.797
-8.633
-8.422
-8.168
-7.873
-7.539
-7.17
-6.769
-6.337
-5.879
-5.399
-4.898
-4.383
-3.856
-3.321
-2.783
-2.245
-1.713
-1.191
-0.681
-0.188
0.284
0.731
1.151
1.539
1.893
2.208
2.482
2.712
2.894
3.026
3.107
3.134
3.105
3.02
2.875
2.67
2.403
2.073
1.679
1.218
0.69
0.096
-0.564
-1.288
-2.074
-2.919
-3.819
-4.767
-5.759
-6.79
-7.853
-8.945
-10.058
-11.188
-12.33
-13.479
-14.631
-15.776
-16.907
-18.013
-19.083
-20.107
-21.074
-21.969
-22.782
-23.499
-24.112
-24.613
-24.993
-25.241
-25.342
-25.278
-25.037
-24.614
-24.005
-23.204
-22.217
-21.051
-19.727
-18.276
-16.722
-15.073
-13.335
-11.5
-9.563
-7.523
-5.376
-3.117
-0.741
1.759
4.381
7.116
9.97
12.96
16.121
19.513
23.167
27.085
31.254
35.64
40.196
44.872
49.591
54.259
58.795
63.127
67.196
70.966
74.378
77.357
79.815
81.636
82.737
83.065
82.58
81.264
79.13
76.207
72.567
68.324
63.571
58.398
52.882
47.081
41.078
34.972
28.862
22.866
17.08
11.574
6.432
1.742
-2.44
-6.068
-9.162
-11.829
-14.132
-16.09
-17.793
-19.364
-21.03
-23.173
-26.004
-29.511
-33.729
-38.73
-44.468
-50.85
-57.371
-62.977
-66.965
-69.095
-69.173
-67.19
-63.308
-57.784
-51.669
-46.973
-45.449
-48.316
-56.554
-70.799
-89.949
-111.304
-132.008
-147.702
-157.626
-165.532
-170.427
-169.73
-156.435
-115.611
-41.017
67.172
205.585
358.868
511.835
650.278
754.895
812.792
819.473
776.187
693.957
589.036
473.69
358.848
255.624
170.379
107.603
68.855
47.482
34.516
24.506
14.133
4.62
-0.035
-0.106
1.862
3.071
0.291
-7.089
-17.735
-30.426
-43.803
-56.508
-67.523
-75.938
-81.227
-83.538
-83.317
-81.113
-77.541
-73.199
-68.698
-64.629
-61.341
-58.939
-57.42
-56.69
-56.658
-57.269
-58.414
-59.964
-61.826
-63.91
-66.149
-68.498
-70.852
-73.093
-75.108
-76.773
-78.014
-78.799
-79.099
-78.911
-78.258
-77.162
-75.671
-73.846
-71.739
-69.404
-66.892
-64.247
-61.526
-58.787
-56.089
-53.491
-51.036
-48.748
-46.648
-44.749
-43.051
-41.556
-40.256
-39.134
-38.179
-37.382
-36.735
-36.231
-35.861
-35.612
-35.473
-35.43
-35.471
-35.586
-35.763
-35.992
-36.263
-36.565
-36.89
-37.23
-37.576
-37.918
-38.243
-38.542
-38.803
-39.017
-39.174
-39.265
-39.283
-39.22
-39.071
-38.832
-38.501
-38.076
-37.554
-36.936
-36.223
-35.416
-34.518
-33.531
-32.459
-31.307
-30.078
-28.778
-27.414
-25.992
-24.518
-23
-21.446
-19.863
-18.261
-16.647
-15.03
-13.419
-11.823
-10.25
-8.709
-7.208
-5.756
-4.36
-3.029
-1.767
-0.583
0.519
1.535
2.459
3.289
4.023
4.657
5.191
5.623
5.953
6.182
6.31
6.339
6.271
6.107
5.852
5.509
5.082
4.575
3.994
3.343
2.628
1.855
1.03
0.161
-0.746
-1.685
-2.646
-3.625
-4.612
-5.6
-6.583
-7.553
-8.503
-9.428
-10.32
-11.175
-11.986
-12.749
-13.46
-14.114
-14.708
-15.239
-15.705
-16.105
-16.435
-16.697
-16.889
-17.012
-17.065
-17.051
-16.971
-16.827
-16.621
-16.355
-16.034
-15.661
-15.239
-14.773
-14.268
-13.729
-13.161
-12.569
-11.961
-11.341
-10.718
-10.096
-9.483
-8.886
-8.31
-7.763
-7.251
-6.778
-6.35
-5.973
-5.651
-5.389
-5.191
-5.061
-5.003
-5.02
-5.116
-5.292
-5.552
-5.897
-6.33
-6.85
-7.459
-8.159
-8.948
-9.828
-10.796
-11.852
-12.995
-14.221
-15.526
-16.905
-18.352
-19.861
-21.425
-23.035
-24.681
-26.356
-28.049
-29.754
-31.462
-33.163
-34.849
-36.51
-38.137
-39.722
-41.253
-42.717
-44.099
-45.388
-46.573
-47.644
-48.589
-49.397
-50.056
-50.557
-50.895
-51.059
-51.04
-50.821
-50.384
-49.724
-48.84
-47.743
-46.438
-44.93
-43.227
-41.34
-39.289
-37.088
-34.738
-32.225
-29.537
-26.673
-23.645
-20.477
-17.194
-13.808
-10.318
-6.721
-3.026
0.754
4.614
8.563
12.616
16.765
20.965
25.141
29.219
33.148
36.899
40.454
43.79
46.871
49.653
52.098
54.188
55.902
57.208
58.056
58.387
58.179
57.461
56.287
54.707
52.746
50.406
47.682
44.588
41.15
37.405
33.389
29.128
24.651
19.991
15.205
10.374
5.557
0.788
-3.902
-8.491
-12.909
-17.016
-20.756
-24.167
-27.353
-30.569
-34.037
-37.844
-42.162
-47.222
-52.947
-59.094
-65.189
-70.336
-73.891
-75.532
-74.763
-71.208
-65.074
-56.844
-47.495
-38.686
-31.64
-27.378
-27.315
-32.56
-43.77
-61.259
-84.537
-112.607
-143.511
-173.661
-199.401
-217.011
-225.926
-229.592
-228.443
-220.174
-197.408
-148.07
-67.401
42.366
173.211
312.86
452.895
585.11
699.817
785.025
826.089
816.242
756.469
654.655
527.428
389.622
255.494
141.822
58.395
8.815
-9.85
-11.07
-8.495
-8.964
-14.58
-21.667
-25.292
-25.674
-25.333
-26.869
-32.693
-42.577
-54.763
-67.747
-79.957
-90.079
-97.3
-101.296
-102.215
-100.541
-96.958
-92.12
-86.623
-81.119
-76.206
-72.208
-69.252
-67.329
-66.308
-66.1
-66.643
-67.815
-69.481
-71.524
-73.822
-76.286
-78.846
-81.392
-83.806
-85.966
-87.747
-89.073
-89.91
-90.236
-90.053
-89.376
-88.224
-86.642
-84.689
-82.422
-79.9
-77.178
-74.304
-71.334
-68.33
-65.351
-62.456
-59.686
-57.065
-54.61
-52.333
-50.235
-48.32
-46.579
-44.998
-43.566
-42.275
-41.117
-40.086
-39.174
-38.369
-37.657
-37.026
-36.465
-35.964
-35.514
-35.104
-34.725
-34.368
-34.025
-33.689
-33.352
-33.003
-32.634
-32.233
-31.791
-31.299
-30.748
-30.131
-29.442
-28.675
-27.825
-26.892
-25.872
-24.765
-23.571
-22.291
-20.928
-19.485
-17.965
-16.374
-14.717
-13.002
-11.234
-9.423
-7.576
-5.704
-3.814
-1.917
-0.023
1.857
3.714
5.537
7.315
9.039
10.697
12.281
13.781
15.189
16.497
17.696
18.782
19.748
20.589
21.302
21.884
22.333
22.648
22.83
22.877
22.793
22.58
22.241
21.78
21.202
20.512
19.716
18.822
17.836
16.767
15.621
14.407
13.135
11.813
10.451
9.057
7.641
6.213
4.781
3.354
1.941
0.551
-0.808
-2.129
-3.405
-4.63
-5.797
-6.901
-7.937
-8.902
-9.791
-10.602
-11.333
-11.983
-12.549
-13.033
-13.435
-13.755
-13.995
-14.157
-14.243
-14.257
-14.202
-14.082
-13.899
-13.66
-13.367
-13.027
-12.644
-12.225
-11.773
-11.296
-10.8
-10.291
-9.775
-9.258
-8.747
-8.247
-7.764
-7.302
-6.868
-6.465
-6.099
-5.774
-5.493
-5.26
-5.08
-4.956
-4.891
-4.887
-4.946
-5.07
-5.262
-5.522
-5.852
-6.252
-6.724
-7.268
-7.884
-8.573
-9.332
-10.159
-11.053
-12.009
-13.023
-14.088
-15.198
-16.346
-17.526
-18.731
-19.956
-21.193
-22.437
-23.683
-24.926
-26.159
-27.373
-28.559
-29.705
-30.802
-31.839
-32.803
-33.682
-34.462
-35.135
-35.693
-36.128
-36.43
-36.586
-36.578
-36.394
-36.028
-35.478
-34.743
-33.823
-32.725
-31.466
-30.074
-28.577
-26.994
-25.33
-23.579
-21.739
-19.811
-17.797
-15.697
-13.5
-11.189
-8.754
-6.195
-3.51
-0.688
2.305
5.523
9.01
12.779
16.815
21.085
25.557
30.19
34.932
39.712
44.43
48.997
53.342
57.41
61.147
64.486
67.334
69.583
71.147
71.974
72.038
71.326
69.825
67.549
64.534
60.848
56.594
51.858
46.717
41.259
35.566
29.73
23.855
18.026
12.321
6.824
1.61
-3.222
-7.575
-11.421
-14.707
-17.362
-19.43
-20.988
-22.223
-23.521
-25.191
-27.429
-30.477
-34.448
-39.235
-44.644
-50.1
-54.694
-57.68
-58.364
-56.155
-50.961
-43.051
-32.97
-21.986
-11.763
-3.939
-0.42
-2.87
-12.176
-28.69
-52.106
-81.07
-113.51
-146.614
-176.651
-199.789
-212.329
-210.695
-192.004
-153.849
-95.817
-20.897
67.009
163.517
265.937
376.211
494.418
614.675
725.991
810.255
849.732
837.635
775.427
672.646
546.232
410.478
278.68
165.711
80.937
29.297
11.591
19.09
39.64
62.801
76.993
76.523
62.434
37.687
10.782
-10.756
-25.086
-32.933
-38.757
-46.325
-55.57
-64.855
-71.757
-75.05
-75.203
-73.087
-69.599
-65.292
-60.557
-55.957
-51.939
-48.729
-46.388
-44.854
-44.084
-44.079
-44.796
-46.122
-47.924
-50.086
-52.508
-55.117
-57.822
-60.498
-63.018
-65.256
-67.096
-68.467
-69.334
-69.673
-69.487
-68.794
-67.618
-66.009
-64.029
-61.739
-59.199
-56.465
-53.587
-50.625
-47.641
-44.694
-41.845
-39.133
-36.583
-34.216
-32.042
-30.064
-28.285
-26.696
-25.282
-24.033
-22.941
-21.997
-21.195
-20.526
-19.978
-19.539
-19.197
-18.94
-18.759
-18.643
-18.583
-18.57
-18.595
-18.649
-18.728
-18.823
-18.925
-19.026
-19.116
-19.187
-19.232
-19.244
-19.217
-19.146
-19.027
-18.856
-18.634
-18.36
-18.034
-17.658
-17.234
-16.765
-16.256
-15.712
-15.137
-14.537
-13.92
-13.292
-12.66
-12.031
-11.413
-10.814
-10.242
-9.705
-9.211
-8.767
-8.381
-8.06
-7.81
-7.637
-7.546
-7.543
-7.629
-7.81
-8.087
-8.463
-8.937
-9.511
-10.182
-10.949
-11.81
-12.76
