Name,Juhan Sonin
Date of Birth,"Mar 1, 1973"
Recorded Date,2021-12-21 07:47:35 -0500
Classification,Sinus Rhythm
Symptoms,
Software Version,1.90
Device,"Watch6,7"
Sample Rate,512 hertz


Lead,Lead I
Unit,µV

422.997
554.485
589.993
519.037
369.304
192.464
34.007
-74.543
-125.37
-133.583
-116.437
-90.102
-66.61
-48.989
-41.344
-47.212
-65.325
-92.765
-121.82
-144.906
-159.916
-168.292
-175.078
-184.11
-195.521
-207.91
-218.798
-226.87
-232.395
-235.817
-237.663
-238.264
-237.767
-236.371
-234.295
-231.685
-228.615
-225.189
-221.523
-217.699
-213.763
-209.736
-205.618
-201.41
-197.124
-192.74
-188.22
-183.54
-178.68
-173.632
-168.375
-162.864
-157.041
-150.844
-144.235
-137.196
-129.719
-121.812
-113.493
-104.798
-95.776
-86.492
-77.002
-67.36
-57.616
-47.813
-38.001
-28.234
-18.568
-9.064
0.229
9.269
18.021
26.456
34.548
42.282
49.648
56.644
63.267
69.514
75.383
80.87
85.975
90.704
95.06
99.053
102.694
105.991
108.957
111.608
113.956
116.019
117.813
119.353
120.658
121.746
122.64
123.36
123.928
124.365
124.691
124.927
125.094
125.209
125.29
125.352
125.409
125.476
125.564
125.683
125.843
126.049
126.31
126.627
127.006
127.446
127.948
128.511
129.131
129.804
130.523
131.281
132.069
132.876
133.69
134.499
135.288
136.043
136.749
137.389
137.948
138.408
138.754
138.969
139.038
138.945
138.676
138.217
137.556
136.681
135.581
134.248
132.673
130.85
128.771
126.434
123.834
120.971
117.844
114.453
110.803
106.897
102.74
98.34
93.706
88.847
83.776
78.504
73.048
67.421
61.642
55.726
49.694
43.565
37.357
31.093
24.791
18.473
12.158
5.869
-0.377
-6.558
-12.656
-18.652
-24.529
-30.27
-35.857
-41.277
-46.514
-51.557
-56.392
-61.01
-65.4
-69.554
-73.466
-77.129
-80.539
-83.694
-86.59
-89.228
-91.61
-93.736
-95.612
-97.242
-98.631
-99.788
-100.719
-101.434
-101.942
-102.254
-102.379
-102.33
-102.117
-101.753
-101.249
-100.617
-99.869
-99.016
-98.07
-97.041
-95.941
-94.779
-93.565
-92.308
-91.017
-89.7
-88.364
-87.017
-85.664
-84.313
-82.967
-81.632
-80.311
-79.007
-77.724
-76.463
-75.225
-74.012
-72.825
-71.662
-70.525
-69.412
-68.322
-67.254
-66.207
-65.178
-64.166
-63.169
-62.186
-61.215
-60.255
-59.304
-58.362
-57.429
-56.505
-55.589
-54.682
-53.785
-52.898
-52.023
-51.16
-50.312
-49.479
-48.663
-47.867
-47.091
-46.338
-45.61
-44.908
-44.234
-43.591
-42.979
-42.4
-41.857
-41.35
-40.882
-40.454
-40.066
-39.722
-39.421
-39.164
-38.951
-38.783
-38.658
-38.576
-38.536
-38.534
-38.57
-38.64
-38.741
-38.871
-39.025
-39.2
-39.393
-39.598
-39.813
-40.032
-40.252
-40.469
-40.678
-40.877
-41.06
-41.226
-41.371
-41.491
-41.585
-41.649
-41.68
-41.676
-41.634
-41.552
-41.428
-41.261
-41.048
-40.79
-40.487
-40.138
-39.744
-39.308
-38.83
-38.313
-37.759
-37.172
-36.555
-35.911
-35.245
-34.56
-33.861
-33.152
-32.439
-31.726
-31.017
-30.317
-29.63
-28.959
-28.309
-27.683
-27.084
-26.516
-25.981
-25.484
-25.027
-24.613
-24.243
-23.92
-23.646
-23.421
-23.245
-23.116
-23.034
-22.997
-23.001
-23.044
-23.12
-23.225
-23.354
-23.504
-23.667
-23.838
-24.01
-24.176
-24.329
-24.462
-24.566
-24.63
-24.644
-24.599
-24.486
-24.297
-24.023
-23.656
-23.187
-22.609
-21.919
-21.11
-20.173
-19.097
-17.867
-16.477
-14.931
-13.236
-11.397
-9.419
-7.306
-5.069
-2.724
-0.279
2.267
4.927
7.717
10.639
13.683
16.827
20.047
23.331
26.681
30.104
33.595
37.149
40.765
44.461
48.263
52.17
56.146
60.123
64.029
67.815
71.451
74.922
78.21
81.287
84.114
86.658
88.897
90.804
92.327
93.388
93.892
93.781
93.064
91.796
90.034
87.82
85.179
82.137
78.734
75.01
71
66.729
62.213
57.504
52.698
47.941
43.401
39.212
35.439
32.091
29.183
26.736
24.777
23.322
22.347
21.816
21.735
22.14
23.007
24.222
25.543
26.586
26.971
26.413
24.703
21.735
17.583
12.427
6.644
0.897
-4.106
-7.698
-9.398
-9.079
-6.975
-3.426
1.044
5.562
9.059
10.154
7.552
0.637
-10.489
-25.605
-44.319
-65.342
-86.717
-104.664
-113.795
-110.905
-94.306
-63.7
-21.419
33.168
102.193
187.148
291.088
413.237
550.542
697.187
841.299
968.841
1060.289
1098.345
1074.987
990.029
861.593
715.522
575.722
465.536
390.41
344.109
317.482
294.793
269.414
242.906
217.655
200.151
192.598
191.552
193.322
193.46
189.334
181.261
170.265
157.474
143.899
130.471
118.091
107.673
100.039
95.347
93.326
93.595
95.571
98.669
102.39
106.175
109.507
112.115
113.884
114.809
115.006
114.568
113.582
112.169
110.448
108.528
106.501
104.444
102.436
100.563
98.924
97.622
96.758
96.423
96.682
97.563
99.063
101.159
103.815
106.988
110.624
114.658
119.027
123.671
128.534
133.568
138.719
143.931
149.145
154.306
159.371
164.312
169.112
173.76
178.249
182.578
186.75
190.778
194.669
198.431
202.067
205.577
208.969
212.248
215.424
218.507
221.504
224.421
227.266
230.048
232.772
235.446
238.073
240.66
243.21
245.731
248.23
250.715
253.191
255.664
258.14
260.625
263.122
265.634
268.161
270.703
273.261
275.831
278.411
280.997
283.586
286.171
288.748
291.31
293.85
296.361
298.835
301.264
303.639
305.952
308.194
310.354
312.424
314.395
316.257
318.001
319.619
321.102
322.44
323.626
324.651
325.507
326.188
326.686
326.994
327.107
327.019
326.727
326.227
325.516
324.589
323.447
322.086
320.506
318.707
316.687
314.447
311.989
309.314
306.424
303.321
300.009
296.49
292.769
288.85
284.737
280.434
275.948
271.284
266.447
261.444
256.281
250.966
245.507
239.909
234.183
228.335
222.374
216.308
210.147
203.9
197.575
191.183
184.733
178.236
171.702
165.14
158.562
151.978
145.398
138.832
132.291
125.784
119.32
112.911
106.565
100.292
94.1
87.999
81.997
76.102
70.321
64.663
59.134
53.741
48.489
43.384
38.432
33.636
29
24.528
20.223
16.086
12.118
8.32
4.691
1.23
-2.065
-5.197
-8.17
-10.986
-13.652
-16.171
-18.55
-20.794
-22.911
-24.906
-26.788
-28.564
-30.241
-31.828
-33.334
-34.766
-36.132
-37.443
-38.705
-39.928
-41.119
-42.288
-43.442
-44.59
-45.74
-46.898
-48.072
-49.268
-50.492
-51.75
-53.046
-54.384
-55.766
-57.196
-58.675
-60.204
-61.783
-63.412
-65.09
-66.816
-68.587
-70.4
-72.252
-74.138
-76.056
-77.999
-79.963
-81.942
-83.931
-85.925
-87.916
-89.899
-91.867
-93.813
-95.731
-97.614
-99.455
-101.247
-102.984
-104.66
-106.267
-107.802
-109.259
-110.634
-111.922
-113.12
-114.225
-115.235
-116.148
-116.963
-117.68
-118.299
-118.819
-119.244
-119.575
-119.814
-119.963
-120.027
-120.008
-119.91
-119.738
-119.496
-119.188
-118.819
-118.395
-117.92
-117.401
-116.843
-116.253
-115.635
-114.997
-114.344
-113.683
-113.017
-112.354
-111.699
-111.056
-110.429
-109.825
-109.246
-108.697
-108.181
-107.7
-107.258
-106.857
-106.498
-106.183
-105.912
-105.688
-105.51
-105.378
-105.293
-105.254
-105.261
-105.313
-105.409
-105.548
-105.729
-105.949
-106.207
-106.501
-106.827
-107.184
-107.567
-107.975
-108.404
-108.851
-109.311
-109.782
-110.26
-110.74
-111.219
-111.691
-112.153
-112.599
-113.025
-113.425
-113.795
-114.129
-114.423
-114.671
-114.869
-115.012
-115.094
-115.111
-115.058
-114.931
-114.725
-114.435
-114.057
-113.587
-113.021
-112.355
-111.588
-110.716
-109.737
-108.649
-107.45
-106.141
-104.72
-103.187
-101.544
-99.792
-97.934
-95.973
-93.915
-91.766
-89.531
-87.219
-84.838
-82.398
-79.909
-77.379
-74.821
-72.245
-69.665
-67.093
-64.546
-62.036
-59.582
-57.199
-54.908
-52.727
-50.678
-48.782
-47.059
-45.533
-44.224
-43.151
-42.333
-41.786
-41.525
-41.562
-41.908
-42.57
-43.554
-44.869
-46.516
-48.496
-50.801
-53.419
-56.333
-59.53
-62.998
-66.732
-70.727
-74.976
-79.475
-84.228
-89.234
-94.488
-99.97
-105.631
-111.424
-117.307
-123.248
-129.24
-135.263
-141.27
-147.208
-153.008
-158.591
-163.915
-168.897
-173.388
-177.334
-180.752
-183.774
-186.728
-189.905
-193.467
-197.63
-202.593
-208.289
-214.547
-220.879
-226.344
-230.162
-231.704
-230.304
-225.636
-217.869
-207.387
-195.236
-183.193
-172.926
-166.3
-165.255
-170.992
-184.191
-205.218
-233.363
-266.849
-302.335
-334.451
-357.954
-369.214
-368.406
-357.854
-337.839
-305.574
-252.603
-170.483
-56.28
87.224
248.185
411.811
562.056
682.682
763.126
794.672
776.882
715.558
616.548
494.05
361.021
231.459
125.119
49.813
6.659
-10.555
-19.552
-30.224
-45.492
-64.418
-79.461
-88.144
-93.072
-97.301
-104.898
-117.028
-132.074
-148.197
-163.381
-176.191
-185.945
-192.138
-194.608
-193.733
-190.274
-185.425
-180.539
-176.522
-173.728
-172.124
-171.609
-172.087
-173.362
-174.993
-176.338
-177.002
-177.051
-176.877
-176.817
-176.996
-177.421
-178.098
-179.152
-180.657
-182.463
-184.246
-185.701
-186.633
-186.982
-186.769
-185.989
-184.631
-182.725
-180.343
-177.581
-174.53
-171.248
-167.771
-164.134
-160.384
-156.579
-152.788
-149.071
-145.48
-142.054
-138.813
-135.775
-132.949
-130.341
-127.953
-125.776
-123.8
-122.015
-120.416
-119.001
-117.767
-116.705
-115.8
-115.039
-114.409
-113.898
-113.498
-113.196
-112.981
-112.841
-112.766
-112.745
-112.769
-112.826
-112.903
-112.985
-113.058
-113.11
-113.128
-113.1
-113.012
-112.855
-112.618
-112.293
-111.872
-111.35
-110.722
-109.984
-109.133
-108.169
-107.091
-105.899
-104.598
-103.189
-101.677
-100.067
-98.367
-96.584
-94.727
-92.805
-90.829
-88.81
-86.762
-84.696
-82.629
-80.573
-78.546
-76.563
-74.641
-72.796
-71.046
-69.407
-67.897
-66.533
-65.33
-64.305
-63.473
-62.848
-62.445
-62.275
-62.351
-62.683
-63.28
-64.151
-65.302
-66.739
-68.466
-70.485
-72.797
-75.402
-78.298
-81.482
-84.949
-88.693
-92.706
-96.978
-101.497
-106.252
-111.226
-116.405
-121.77
-127.305
-132.989
-138.803
-144.726
-150.736
-156.812
-162.93
-169.069
-175.204
-181.313
-187.373
-193.36
-199.253
-205.029
-210.669
-216.153
-221.463
-226.585
-231.503
-236.206
-240.682
-244.923
-248.921
-252.667
-256.156
-259.382
-262.343
-265.038
-267.47
-269.643
-271.565
-273.246
-274.696
-275.931
-276.963
-277.802
-278.458
-278.94
-279.258
-279.43
-279.476
-279.421
-279.295
-279.135
-278.976
-278.854
-278.799
-278.83
-278.956
-279.182
-279.515
-279.967
-280.555
-281.298
-282.211
-283.305
-284.578
-286.018
-287.583
-289.207
-290.811
-292.312
-293.64
-294.75
-295.613
-296.212
-296.53
-296.556
-296.282
-295.704
-294.829
-293.656
-292.186
-290.424
-288.441
-286.369
-284.358
-282.563
-281.106
-280.082
-279.621
-279.913
-281.071
-283.106
-285.947
-289.363
-293.091
-296.917
-300.51
-303.386
-305.278
-306.053
-305.665
-304.723
-304.126
-304.726
-307.79
-313.387
-319.452
-323.909
-324.82
-323.792
-326.897
-337.635
-355.754
-370.712
-362.478
-316.328
-223.664
-91.851
54.018
190.969
298.038
363.754
394.209
395.616
374.398
340.465
297.94
255.3
226.019
214.724
222.242
242.729
262.15
273.343
274.535
267.56
259.653
254.497
251.957
251.036
249.179
245.098
239.579
233.776
228.667
224.871
222.447
221.242
221.272
222.646
225.272
228.868
233.179
237.91
242.856
247.98
253.191
258.374
263.429
268.232
272.681
276.709
280.263
283.302
285.794
287.722
289.087
289.926
290.294
290.267
289.914
289.281
288.417
287.369
286.203
285.011
283.865
282.823
281.92
281.179
280.621
280.266
280.12
280.168
280.389
280.757
281.253
281.87
282.596
283.413
284.299
285.224
286.164
287.107
288.043
288.967
289.875
290.762
291.629
292.489
293.349
294.217
295.098
295.993
296.903
297.832
298.784
299.76
300.762
301.787
302.833
303.898
304.976
306.066
307.159
308.247
309.323
310.379
311.408
312.399
313.343
314.229
315.044
315.776
316.41
316.931
317.321
317.562
317.638
317.532
317.23
316.718
315.98
315.004
313.778
312.296
310.549
308.53
306.231
303.647
300.78
297.639
294.234
290.576
286.668
282.508
278.094
273.426
268.508
263.34
257.92
252.254
246.354
240.261
234.026
227.696
221.315
214.902
208.47
202.053
195.701
189.486
183.492
177.79
172.427
167.469
162.997
159.019
155.479
152.203
148.9
145.304
141.233
136.573
131.271
125.435
119.247
113.014
107.292
102.68
99.713
98.734
99.798
102.584
106.647
111.494
116.208
119.505
119.979
116.394
107.927
94.491
76.241
53.161
27.137
1.996
-18.642
-30.414
-32.276
-27.671
-16.108
4.172
38.047
96.437
182.806
296.467
434.143
583.199
732.31
868.189
973.102
1034.522
1042.957
996.548
904.055
779.318
638.587
497.582
369.344
262.344
183.883
137.082
118.714
124.254
142.105
159.587
169.624
165.911
150.909
132.33
114.318
101.572
93.783
85.811
76.014
63.686
49.749
37.854
29.449
24.364
22.407
22.57
24.03
26.466
29.248
31.609
33.159
33.733
33.26
31.834
29.529
26.354
22.421
17.906
12.938
7.633
2.086
-3.644
-9.453
-15.208
-20.785
-26.058
-30.918
-35.302
-39.164
-42.477
-45.244
-47.479
-49.207
-50.478
-51.344
-51.86
-52.08
-52.051
-51.822
-51.446
-50.979
-50.474
-49.983
-49.539
-49.165
-48.874
-48.674
-48.566
-48.548
-48.61
-48.74
-48.929
-49.167
-49.45
-49.773
-50.131
-50.514
-50.916
-51.329
-51.745
-52.161
-52.571
-52.972
-53.361
-53.733
-54.088
-54.424
-54.738
-55.029
-55.29
-55.517
-55.706
-55.854
-55.956
-56.008
-56.008
-55.954
-55.845
-55.679
-55.458
-55.181
-54.849
-54.463
-54.026
-53.538
-53.003
-52.422
-51.799
-51.137
-50.439
-49.709
-48.953
-48.174
-47.377
-46.567
-45.749
-44.928
-44.109
-43.297
-42.498
-41.715
-40.954
-40.221
-39.52
-38.857
-38.236
-37.663
-37.141
-36.676
-36.271
-35.931
-35.658
-35.455
-35.326
-35.272
-35.297
-35.403
-35.591
-35.862
-36.219
-36.661
-37.188
-37.8
-38.496
-39.273
-40.131
-41.066
-42.076
-43.158
-44.307
-45.521
-46.795
-48.125
-49.505
-50.931
-52.397
-53.898
-55.426
-56.977
-58.543
-60.117
-61.693
-63.264
-64.823
-66.363
-67.876
-69.356
-70.794
-72.185
-73.52
-74.793
-75.997
-77.127
-78.176
-79.14
-80.014
-80.795
-81.479
-82.064
-82.547
-82.927
-83.204
-83.376
-83.443
-83.406
-83.266
-83.025
-82.684
-82.246
-81.715
-81.093
-80.385
-79.594
-78.727
-77.787
-76.78
-75.712
-74.589
-73.418
-72.206
-70.96
-69.688
-68.398
-67.097
-65.793
-64.493
-63.204
-61.935
-60.69
-59.476
-58.299
-57.165
-56.078
-55.042
-54.063
-53.144
-52.289
-51.501
-50.782
-50.135
-49.562
-49.064
-48.642
-48.298
-48.033
-47.846
-47.737
-47.706
-47.753
-47.876
-48.073
-48.343
-48.683
-49.09
-49.56
-50.091
-50.679
-51.32
-52.011
-52.747
-53.526
-54.344
-55.197
-56.083
-56.998
-57.94
-58.906
-59.893
-60.898
-61.919
-62.954
-64.001
-65.057
-66.121
-67.189
-68.261
-69.334
-70.405
-71.473
-72.535
-73.59
-74.635
-75.67
-76.692
-77.701
-78.694
-79.671
-80.631
-81.571
-82.492
-83.392
-84.269
-85.122
-85.95
-86.75
-87.521
-88.262
-88.97
-89.642
-90.277
-90.872
-91.426
-91.936
-92.4
-92.816
-93.185
-93.504
-93.773
-93.991
-94.16
-94.278
-94.346
-94.363
-94.331
-94.249
-94.118
-93.939
-93.712
-93.44
-93.124
-92.766
-92.368
-91.932
-91.461
-90.957
-90.425
-89.866
-89.284
-88.683
-88.068
-87.442
-86.81
-86.178
-85.547
-84.922
-84.306
-83.702
-83.11
-82.532
-81.965
-81.408
-80.863
-80.326
-79.797
-79.275
-78.758
-78.247
-77.742
-77.243
-76.746
-76.248
-75.742
-75.224
-74.686
-74.12
-73.517
-72.868
-72.163
-71.398
-70.567
-69.664
-68.681
-67.604
-66.419
-65.113
-63.682
-62.123
-60.43
-58.607
-56.661
-54.611
-52.488
-50.312
-48.093
-45.835
-43.528
-41.167
-38.747
-36.261
-33.703
-31.063
-28.327
-25.488
-22.55
-19.502
-16.32
-12.968
-9.38
-5.521
-1.388
3.009
7.635
12.442
17.386
22.394
27.378
32.258
36.959
41.419
45.604
49.457
52.905
55.86
58.204
59.851
60.76
60.908
60.297
58.952
56.904
54.214
50.983
47.292
43.207
38.78
34.034
29.009
23.777
18.427
13.081
7.854
2.824
-1.942
-6.399
-10.527
-14.297
-17.692
-20.713
-23.344
-25.567
-27.368
-28.704
-29.507
-29.792
-29.69
-29.447
-29.416
-29.905
-31.086
-33.027
-35.828
-39.465
-43.667
-47.936
-51.429
-53.216
-52.72
-49.749
-44.198
-36.242
-26.493
-15.891
-6.051
1.034
3.613
0.462
-9.289
-26.243
-48.969
-74.151
-98.321
-116.912
-128.935
-138.082
-143.796
-143.398
-128.948
-84.913
-4.813
111.201
257.041
415.932
575.854
724.559
847.727
936.674
980.013
973.963
922.671
831.088
714.552
587.351
464.255
365.437
298.032
262.535
252.266
248.902
242.723
231.136
215.272
203.085
197.167
194.686
192.457
186.325
174.954
159.798
142.383
124.305
106.915
91.261
78.367
68.756
62.378
58.84
57.585
58.093
59.834
62.21
64.635
66.707
68.231
69.136
69.394
68.983
67.89
66.15
63.857
61.092
57.919
54.4
50.586
46.545
42.381
38.187
34.042
30.027
26.213
22.669
19.483
16.713
14.373
12.465
10.962
9.831
9.041
8.544
8.284
8.208
8.266
8.413
8.618
8.842
9.051
9.206
9.268
9.207
9.01
8.669
8.183
7.553
6.785
5.889
4.885
3.788
2.611
1.365
0.057
-1.303
-2.7
-4.121
-5.553
-6.983
-8.398
-9.788
-11.138
-12.439
-13.679
-14.851
-15.946
-16.958
-17.879
-18.699
-19.412
-20.012
-20.493
-20.851
-21.08
-21.18
-21.147
-20.984
-20.691
-20.272
-19.729
-19.068
-18.294
-17.414
-16.435
-15.365
-14.213
-12.987
-11.698
-10.357
-8.975
-7.564
-6.135
-4.703
-3.279
-1.876
-0.508
0.813
2.075
3.266
4.373
5.387
6.295
7.088
7.757
8.294
8.689
8.936
9.03
8.964
8.737
8.343
7.783
7.054
6.157
5.093
3.863
2.47
0.918
-0.789
-2.646
-4.644
-6.778
-9.037
-11.414
-13.898
-16.479
-19.144
-21.882
-24.682
-27.53
-30.414
-33.321
-36.238
-39.152
-42.05
-44.92
-47.749
-50.525
-53.238
-55.875
-58.427
-60.884
-63.238
-65.48
-67.601
-69.597
-71.46
-73.185
-74.768
-76.206
-77.496
-78.636
-79.627
-80.47
-81.165
-81.715
-82.125
-82.398
-82.54
-82.557
-82.455
-82.241
-81.923
-81.509
-81.008
-80.429
-79.781
-79.072
-78.313
-77.511
-76.676
-75.815
-74.938
-74.052
-73.164
-72.281
-71.411
-70.559
-69.732
-68.934
-68.17
-67.445
-66.761
-66.12
-65.526
-64.979
-64.479
-64.026
-63.619
-63.258
-62.939
-62.661
-62.42
-62.213
-62.035
-61.884
-61.753
-61.639
-61.538
-61.444
-61.353
-61.261
-61.165
-61.06
-60.944
-60.812
-60.664
-60.497
-60.308
-60.098
-59.864
-59.607
-59.327
-59.024
-58.701
-58.359
-58
-57.628
-57.246
-56.858
-56.468
-56.081
-55.703
-55.338
-54.993
-54.674
-54.386
-54.137
-53.932
-53.777
-53.679
-53.643
-53.675
-53.778
-53.958
-54.219
-54.564
-54.996
-55.517
-56.129
-56.833
-57.63
-58.518
-59.497
-60.565
-61.719
-62.956
-64.273
-65.665
-67.126
-68.651
-70.234
-71.867
-73.544
-75.256
-76.995
-78.754
-80.522
-82.292
-84.055
-85.802
-87.525
-89.215
-90.865
-92.467
-94.013
-95.498
-96.914
-98.257
-99.52
-100.701
-101.794
-102.798
-103.709
-104.526
-105.248
-105.876
-106.409
-106.849
-107.197
-107.456
-107.628
-107.719
-107.732
-107.672
-107.544
-107.354
-107.108
-106.813
-106.475
-106.098
-105.691
-105.257
-104.803
-104.334
-103.854
-103.368
-102.879
-102.391
-101.906
-101.427
-100.955
-100.49
-100.032
-99.581
-99.135
-98.691
-98.248
-97.801
-97.347
-96.883
-96.403
-95.903
-95.375
-94.815
-94.216
-93.569
-92.867
-92.103
-91.269
-90.358
-89.362
-88.275
-87.09
-85.802
-84.407
-82.898
-81.272
-79.528
-77.661
-75.672
-73.559
-71.324
-68.967
-66.492
-63.904
-61.208
-58.412
-55.525
-52.559
-49.524
-46.434
-43.3
-40.137
-36.96
-33.784
-30.622
-27.493
-24.416
-21.411
-18.502
-15.711
-13.062
-10.574
-8.269
-6.162
-4.264
-2.588
-1.143
0.056
0.993
1.645
1.984
1.985
1.63
0.909
-0.179
-1.631
-3.438
-5.588
-8.059
-10.836
-13.916
-17.295
-20.965
-24.901
-29.052
-33.34
-37.668
-41.937
-46.053
-49.947
-53.569
-56.876
-59.831
-62.4
-64.571
-66.333
-67.675
-68.575
-68.981
-68.916
-68.533
-68.114
-68.062
-68.765
-70.496
-73.394
-77.608
-83.136
-89.693
-96.736
-103.342
-108.463
-111.373
-111.758
-109.442
-104.553
-97.701
-89.86
-82.663
-78.159
-78.221
-84.176
-96.862
-116.771
-142.332
-170.012
-196.291
-216.851
-230.529
-240.223
-244.747
-239.85
-216.702
-161.826
-70.755
52.167
196.734
347.724
495.837
635.973
761.272
863.852
931.151
950.56
917.777
834.653
712.507
570.937
428.91
307.484
221.915
173.818
158.051
160.255
163.942
162.626
155.081
144.737
137.55
133.622
130.001
124.033
112.989
96.804
77.388
56.485
35.861
17.111
1.335
-10.936
-19.63
-25.058
-27.814
-28.464
-27.544
-25.699
-23.541
-21.44
-19.593
-18.068
-16.833
-15.927
-15.424
-15.325
-15.599
-16.207
-17.104
-18.262
-19.664
-21.262
-22.977
-24.726
-26.426
-28.015
-29.451
-30.684
-31.661
-32.32
-32.598
-32.468
-31.928
-30.996
-29.705
-28.092
-26.193
-24.061
-21.757
-19.336
-16.848
-14.333
-11.819
-9.34
-6.934
-4.637
-2.493
-0.529
1.241
2.805
4.161
5.307
6.246
6.987
7.548
7.94
8.176
8.264
8.21
8.026
7.723
7.317
6.822
6.255
5.628
4.958
4.26
3.548
2.836
2.138
1.463
0.826
0.237
-0.29
-0.743
-1.111
-1.383
-1.551
-1.604
-1.537
-1.343
-1.017
-0.558
0.038
0.771
1.641
2.647
3.788
5.06
6.46
7.982
9.622
11.371
13.223
15.167
17.194
19.293
21.452
23.659
25.899
28.16
30.426
32.684
34.918
37.113
39.254
41.327
43.317
45.21
46.992
48.649
50.169
51.539
52.75
53.79
54.649
55.32
55.793
56.063
56.122
55.965
55.59
54.993
54.172
53.127
51.859
50.371
48.666
46.751
44.631
42.314
39.811
37.132
34.288
31.293
28.161
24.906
21.544
18.091
14.565
10.981
7.357
3.711
0.061
-3.578
-7.186
-10.747
-14.244
-17.662
-20.983
-24.193
-27.277
-30.222
-33.015
-35.644
-38.098
-40.368
-42.446
-44.324
-45.998
-47.462
-48.715
-49.755
-50.583
-51.199
-51.607
-51.811
-51.817
-51.631
-51.261
-50.717
-50.006
-49.14
-48.129
-46.984
-45.717
-44.341
-42.867
-41.309
-39.679
-37.989
-36.253
-34.483
-32.69
-30.887
-29.085
-27.294
-25.524
-23.787
-22.09
-20.442
-18.851
-17.323
-15.865
-14.481
-13.177
-11.955
-10.818
-9.767
-8.805
-7.931
-7.145
-6.447
-5.835
-5.308
-4.865
-4.502
-4.218
-4.009
-3.873
-3.807
-3.807
-3.872
-3.997
-4.181
-4.421
-4.715
-5.059
-5.454
-5.895
-6.382
-6.914
-7.487
-8.102
-8.756
-9.45
-10.182
-10.951
-11.758
-12.602
-13.483
-14.401
-15.355
-16.346
-17.371
-18.432
-19.526
-20.654
-21.813
-23.003
-24.221
-25.466
-26.736
-28.027
-29.337
-30.662
-31.997
-33.338
-34.68
-36.018
-37.347
-38.66
-39.952
-41.218
-42.451
-43.645
-44.796
-45.895
-46.938
-47.918
-48.83
-49.668
-50.427
-51.102
-51.689
-52.185
-52.585
-52.888
-53.091
-53.193
-53.191
-53.086
-52.878
-52.567
-52.154
-51.642
-51.034
-50.332
-49.543
-48.671
-47.72
-46.698
-45.611
-44.466
-43.27
-42.03
-40.754
-39.45
-38.126
-36.79
-35.451
-34.117
-32.795
-31.493
-30.219
-28.979
-27.779
-26.624
-25.519
-24.467
-23.472
-22.537
-21.664
-20.852
-20.103
-19.416
-18.792
-18.228
-17.721
-17.267
-16.862
-16.502
-16.181
-15.89
-15.624
-15.372
-15.128
-14.883
-14.628
-14.354
-14.053
-13.712
-13.325
-12.884
-12.377
-11.795
-11.126
-10.359
-9.491
-8.522
-7.448
-6.266
-4.976
-3.576
-2.072
-0.471
1.233
3.043
4.964
7.001
9.142
11.376
13.691
16.075
18.525
21.041
23.605
26.201
28.826
31.47
34.13
36.809
39.465
42.058
44.556
46.917
49.128
51.171
53.018
54.647
56.038
57.172
58.052
58.674
59.002
59.008
58.658
57.925
56.835
55.41
53.648
51.563
49.158
46.451
43.48
40.267
36.812
33.112
29.16
24.982
20.663
16.284
11.917
7.625
3.42
-0.649
-4.488
-8.03
-11.206
-13.986
-16.39
-18.372
-19.831
-20.734
-21.106
-21.12
-21.152
-21.527
-22.481
-24.278
-27.043
-30.759
-35.353
-40.359
-44.946
-48.276
-49.472
-47.813
-43.143
-35.664
-25.81
-14.65
-3.685
5.298
10.147
9.042
0.94
-14.618
-37.482
-66.639
-99.264
-130.652
-155.972
-171.219
-175.836
-171.647
-157.343
-128.545
-77.622
2.806
112.654
245.528
391.225
539.291
682.196
812.043
919.365
991.974
1017.328
990.349
912.958
796.502
660.527
522.957
401.756
309.365
246.856
211.28
193.003
179.639
166.381
151.532
136.843
127.182
122.323
119.376
115.567
107.658
95.132
79.547
62.284
44.838
28.612
14.593
3.649
-3.775
-7.888
-9.2
-8.34
-5.972
-2.726
0.765
3.899
6.277
7.716
8.161
7.663
6.288
4.09
1.171
-2.348
-6.361
-10.755
-15.443
-20.341
-25.334
-30.303
-35.127
-39.684
-43.866
-47.58
-50.751
-53.343
-55.349
-56.786
-57.683
-58.083
-58.034
-57.6
-56.844
-55.823
-54.595
-53.209
-51.719
-50.18
-48.642
-47.155
-45.752
-44.455
-43.275
-42.217
-41.28
-40.461
-39.749
-39.13
-38.59
-38.12
-37.712
-37.359
-37.054
-36.786
-36.544
-36.317
-36.096
-35.873
-35.639
-35.386
-35.107
-34.794
-34.44
-34.04
-33.587
-33.073
-32.489
-31.826
-31.078
-30.238
-29.299
-28.256
-27.106
-25.845
-24.473
-22.989
-21.395
-19.692
-17.883
-15.97
-13.958
-11.852
-9.657
-7.378
-5.024
-2.601
-0.117
2.418
4.997
7.609
10.244
12.892
15.542
18.181
20.799
23.382
25.918
28.395
30.798
33.117
35.338
37.448
39.437
41.293
43.006
44.565
45.964
47.193
48.244
49.112
49.79
50.273
50.556
50.636
50.51
50.174
49.629
48.873
47.908
46.733
45.353
43.769
41.986
40.01
37.845
35.5
32.983
30.303
27.471
24.498
21.397
18.18
14.862
11.455
7.975
4.436
0.851
-2.763
-6.394
-10.025
-13.643
-17.232
-20.78
-24.271
-27.692
-31.03
-34.271
-37.404
-40.416
-43.297
-46.037
-48.626
-51.055
-53.316
-55.404
-57.311
-59.034
-60.568
-61.913
-63.067
-64.03
-64.805
-65.395
-65.803
-66.035
-66.096
-65.993
-65.733
-65.323
-64.773
-64.09
-63.285
-62.367
-61.346
-60.233
-59.039
-57.775
-56.452
-55.081
-53.673
-52.239
-50.79
-49.336
-47.888
-46.456
-45.05
-43.679
-42.351
-41.075
-39.857
-38.704
-37.621
-36.613
-35.682
-34.832
-34.064
-33.379
-32.778
-32.261
-31.827
-31.475
-31.204
-31.011
-30.895
-30.852
-30.879
-30.972
-31.128
-31.342
-31.61
-31.929
-32.292
-32.698
-33.139
-33.613
-34.115
-34.639
-35.182
-35.739
-36.306
-36.879
-37.455
-38.032
-38.606
-39.178
-39.744
-40.306
-40.861
-41.411
-41.955
-42.494
-43.027
-43.557
-44.083
-44.608
-45.133
-45.658
-46.187
-46.719
-47.258
-47.803
-48.356
-48.917
-49.487
-50.067
-50.657
-51.257
-51.869
-52.492
-53.128
-53.775
-54.434
-55.104
-55.783
-56.469
-57.16
-57.853
-58.546
-59.236
-59.921
-60.597
-61.262
-61.914
-62.55
-63.167
-63.762
-64.332
-64.873
-65.384
-65.86
-66.302
-66.706
-67.073
-67.402
-67.694
-67.95
-68.171
-68.359
-68.513
-68.635
-68.724
-68.782
-68.809
-68.806
-68.776
-68.723
-68.652
-68.57
-68.485
-68.403
-68.331
-68.271
-68.228
-68.204
-68.2
-68.214
-68.247
-68.301
-68.38
-68.496
-68.656
-68.861
-69.108
-69.386
-69.681
-69.976
-70.255
-70.495
-70.677
-70.793
-70.838
-70.827
-70.773
-70.681
-70.548
-70.356
-70.084
-69.727
-69.283
-68.761
-68.186
-67.58
-66.977
-66.433
-65.992
-65.681
-65.505
-65.431
-65.408
-65.398
-65.375
-65.319
-65.222
-65.059
-64.792
-64.379
-63.755
-62.849
-61.58
-59.833
-57.501
-54.51
-50.816
-46.433
-41.416
-35.816
-29.681
-23.078
-16.067
-8.726
-1.158
6.53
14.212
21.734
28.937
35.646
41.683
46.902
51.19
54.472
56.723
57.923
58.059
57.15
55.225
52.319
48.501
43.853
38.469
32.489
26.056
19.297
12.345
5.308
-1.717
-8.624
-15.317
-21.719
-27.747
-33.351
-38.487
-43.076
-47.068
-50.439
-53.164
-55.297
-56.88
-57.866
-58.284
-58.22
-57.799
-57.299
-56.984
-56.982
-57.531
-58.927
-61.181
-64.218
-67.765
-71.154
-73.92
-75.794
-76.225
-74.717
-71.263
-66.036
-59.623
-53.234
-47.728
-43.882
-42.984
-46.213
-54.43
-68.273
-87.717
-112.121
-139.599
-166.68
-189.821
-204.952
-211.094
-211.045
-203.82
-187.139
-154.545
-93.484
0.019
124.238
272.942
431.216
588.605
736.081
862.169
955.669
1001.851
989.175
913.956
787.234
633.526
480.941
357.949
276.787
232.745
213.305
198.573
177.85
151.753
124.866
106.052
98.449
98.505
101.469
101.728
96.778
87.352
74.56
59.776
44.263
29.003
15.249
4.264
-3.419
-7.885
-9.496
-8.832
-6.503
-3.072
0.789
4.379
7.281
9.292
10.353
10.548
9.95
8.611
6.637
4.157
1.28
-1.887
-5.253
-8.745
-12.267
-15.716
-18.987
-21.97
-24.566
-26.688
-28.28
-29.318
-29.805
-29.761
-29.221
-28.226
-26.831
-25.105
-23.111
-20.912
-18.564
-16.116
-13.623
-11.139
-8.717
-6.409
-4.247
-2.254
-0.443
1.179
2.61
3.853
4.917
5.816
6.565
7.173
7.65
8.002
8.241
8.38
8.432
8.412
8.332
8.205
8.043
7.861
7.671
7.485
7.315
7.171
7.065
7.009
7.017
7.099
7.268
7.533
7.904
8.389
8.996
9.729
10.594
11.592
12.724
13.991
15.391
16.923
18.582
20.365
22.266
24.278
26.396
28.611
30.915
33.297
35.747
38.255
40.809
43.397
46.005
48.621
51.231
53.821
56.379
58.889
61.338
63.713
66
68.187
70.262
72.212
74.026
75.695
77.209
78.559
79.737
80.737
81.551
82.176
82.605
82.835
82.864
82.689
82.309
81.724
80.934
79.94
78.745
77.351
75.764
73.988
72.029
69.894
67.591
65.129
62.517
59.766
56.886
53.888
50.785
47.588
44.31
40.965
37.564
34.122
30.651
27.165
23.677
20.2
16.747
13.331
9.963
6.657
3.422
0.271
-2.787
-5.741
-8.583
-11.303
-13.895
-16.352
-18.667
-20.836
-22.855
-24.721
-26.432
-27.988
-29.389
-30.635
-31.729
-32.673
-33.472
-34.129
-34.65
-35.04
-35.307
-35.456
-35.496
-35.436
-35.283
-35.046
-34.736
-34.36
-33.93
-33.454
-32.941
-32.402
-31.846
-31.283
-30.72
-30.168
-29.634
-29.127
-28.654
-28.221
-27.836
-27.502
-27.227
-27.013
-26.865
-26.785
-26.776
-26.841
-26.981
-27.197
-27.489
-27.857
-28.301
-28.819
-29.411
-30.074
-30.806
-31.604
-32.466
-33.389
-34.369
-35.402
-36.486
-37.616
-38.788
-39.998
-41.243
-42.518
-43.818
-45.141
-46.483
-47.839
-49.206
-50.581
-51.962
-53.344
-54.726
-56.104
-57.475
-58.838
-60.19
-61.527
-62.848
-64.15
-65.431
-66.689
-67.922
-69.127
-70.302
-71.446
-72.557
-73.632
-74.67
-75.668
-76.625
-77.54
-78.411
-79.236
-80.014
-80.745
-81.426
-82.057
-82.638
-83.166
-83.642
-84.065
-84.434
-84.749
-85.01
-85.217
-85.37
-85.471
-85.52
-85.518
-85.467
-85.37
-85.227
-85.042
-84.816
-84.552
-84.254
-83.923
-83.564
-83.179
-82.772
-82.345
-81.903
-81.449
-80.985
-80.515
-80.043
-79.57
-79.1
-78.635
-78.176
-77.727
-77.289
-76.863
-76.451
-76.054
-75.671
-75.304
-74.951
-74.611
-74.283
-73.965
-73.654
-73.346
-73.039
-72.728
-72.411
-72.082
-71.737
-71.372
-70.981
-70.561
-70.105
-69.609
-69.066
-68.472
-67.822
-67.109
-66.329
-65.476
-64.548
-63.538
-62.444
-61.26
-59.984
-58.612
-57.141
-55.569
-53.893
-52.114
-50.231
-48.244
-46.155
-43.968
-41.686
-39.312
-36.853
-34.314
-31.7
-29.018
-26.275
-23.479
-20.638
-17.763
-14.861
-11.947
-9.034
-6.136
-3.269
-0.448
2.312
4.994
7.578
10.047
12.385
14.578
16.61
18.465
20.128
21.582
22.815
23.819
24.585
25.105
25.372
25.378
25.125
24.616
23.858
22.852
21.593
20.072
18.284
16.227
13.902
11.314
8.465
5.366
2.045
-1.463
-5.113
-8.852
-12.644
-16.455
-20.253
-24.013
-27.685
-31.2
-34.491
-37.487
-40.128
-42.404
-44.304
-45.797
-46.94
-47.855
-48.744
-49.942
-51.752
-54.262
-57.509
-61.557
-66.365
-71.845
-77.726
-83.265
-87.634
-90.4
-91.362
-90.428
-87.696
-83.262
-77.604
-72.084
-68.419
-68.148
-72.478
-82.171
-97.916
-118.829
-141.739
-163.221
-179.141
-189.026
-197.198
-203.497
-203.578
-186.989
-137.702
-49.315
74.36
222.722
381.211
540.326
693.15
830.873
937.617
993.809
987.073
913.252
785.308
629.451
469.579
330.359
227.644
161.039
125.801
109.271
95.588
79.512
60.397
41.602
29.916
25.695
25.348
24.983
20.435
10.73
-2.727
-18.515
-35.04
-50.907
-64.988
-76.126
-83.727
-87.902
-89.104
-87.998
-85.271
-81.564
-77.584
-74.051
-71.434
-69.925
-69.557
-70.231
-71.845
-74.338
-77.597
-81.471
-85.833
-90.557
-95.533
-100.675
-105.868
-110.97
-115.85
-120.369
-124.405
-127.886
-130.771
-133.038
-134.7
-135.783
-136.317
-136.359
-135.974
-135.225
-134.179
-132.896
-131.432
-129.852
-128.22
-126.598
-125.046
-123.606
-122.3
-121.148
-120.157
-119.329
-118.662
-118.147
-117.768
-117.513
-117.372
-117.334
-117.393
-117.536
-117.751
-118.022
-118.335
-118.676
-119.033
-119.394
-119.747
-120.079
-120.379
-120.636
-120.841
-120.983
-121.049
-121.029
-120.909
-120.678
-120.326
-119.843
-119.221
-118.451
-117.529
-116.448
-115.206
-113.801
-112.233
-110.503
-108.614
-106.57
-104.38
-102.051
-99.593
-97.018
-94.336
-91.559
-88.7
-85.773
-82.789
-79.762
-76.709
-73.644
-70.587
-67.555
-64.565
-61.632
-58.773
-56.003
-53.339
-50.796
-48.384
-46.119
-44.018
-42.102
-40.399
-38.932
-37.71
-36.744
-36.038
-35.596
-35.417
-35.491
-35.792
-36.296
-36.98
-37.824
-38.82
-39.944
-41.16
-42.421
-43.67
-44.875
-46.035
-47.142
-48.182
-49.145
-50.018
-50.839
-51.684
-52.599
-53.63
-54.819
-56.182
-57.824
-59.895
-62.445
-65.512
-69.055
-72.861
-76.755
-80.584
-84.05
-86.937
-89.257
-90.962
-92.189
-93.534
-95.679
-99.311
-105.158
-112.354
-118.514
-122.193
-122.778
-122.707
-126.641
-135.455
-145.521
-147.341
-129.027
-83.797
-13.101
71.219
152.409
214.531
247.934
254.342
241.978
222.374
205.487
194.33
187.869
182.943
176.91
169.85
163.257
158.859
157.079
157.222
158.166
158.6
158.047
156.526
154.026
150.766
147.018
142.988
139.042
135.561
132.655
130.333
128.538
127.12
126.001
125.107
124.315
123.495
122.528
121.337
119.906
118.247
116.366
114.262
111.931
109.384
106.666
103.818
100.88
97.88
94.836
91.773
88.729
85.742
82.855
80.095
77.474
75.003
72.688
70.535
68.545
66.713
65.021
63.456
62.005
60.66
59.414
58.257
57.175
56.154
55.183
54.251
53.351
52.473
51.608
50.751
49.895
49.037
48.175
47.305
46.424
45.53
44.619
43.69
42.741
41.77
40.777
39.762
38.726
37.67
36.598
35.513
34.416
33.314
32.209
31.107
30.011
28.928
27.861
26.817
25.8
24.815
23.867
22.958
22.095
21.28
20.517
19.808
19.157
18.566
18.037
17.57
17.168
16.83
16.557
16.346
16.198
16.111
16.083
16.111
16.194
16.328
16.51
16.735
17
17.298
17.626
17.977
18.346
18.729
19.12
19.514
19.907
20.296
20.678
21.049
21.407
21.752
22.083
22.398
22.697
22.979
23.243
23.491
23.723
23.94
24.144
24.336
24.521
24.705
24.892
25.09
25.302
25.533
25.787
26.072
26.393
26.754
27.159
27.612
28.121
28.697
29.356
30.102
30.933
31.841
32.82
33.867
34.976
36.139
37.34
38.57
39.834
41.148
42.53
43.985
45.508
47.079
48.679
50.299
51.945
53.625
55.34
57.089
58.874
60.718
62.646
64.663
66.736
68.801
70.79
72.659
74.377
75.934
77.312
78.488
79.432
80.118
80.529
80.642
80.42
79.793
78.688
77.057
74.903
72.28
69.243
65.826
62.06
57.966
53.577
48.932
44.057
38.966
33.685
28.263
22.779
17.353
12.112
7.154
2.568
-1.596
-5.298
-8.481
-11.107
-13.171
-14.662
-15.536
-15.817
-15.566
-14.916
-14.146
-13.518
-13.202
-13.472
-14.65
-16.783
-19.785
-23.385
-26.913
-29.881
-32.043
-32.878
-31.905
-29.158
-24.807
-19.36
-14.048
-9.842
-7.474
-8.114
-12.953
-22.713
-37.991
-59.188
-84.594
-110.825
-134.86
-153.005
-164.234
-172.625
-179.722
-183.452
-177.444
-146.448
-78.011
31.601
179.763
351.199
526.861
691.123
828.007
928.669
987.27
998.114
961.235
877.693
757.325
617.991
479.509
365.185
285.744
239.617
218.029
203.065
184.689
161.831
136.953
117.997
107.969
103.842
101.832
97.102
87.547
74.197
58.365
41.475
24.715
9.002
-4.61
-15.151
-22.241
-26.097
-27.2
-26.149
-23.566
-20.035
-16.186
-12.652
-9.834
-7.926
-6.998
-7.001
-7.874
-9.568
-11.991
-15.024
-18.569
-22.52
-26.782
-31.268
-35.865
-40.457
-44.928
-49.156
-53.028
-56.439
-59.319
-61.632
-63.374
-64.561
-65.22
-65.387
-65.111
-64.453
-63.475
-62.234
-60.783
-59.169
-57.442
-55.656
-53.864
-52.117
-50.451
-48.887
-47.439
-46.112
-44.908
-43.827
-42.858
-41.987
-41.203
-40.496
-39.86
-39.291
-38.782
-38.323
-37.904
-37.515
-37.149
-36.797
-36.453
-36.109
-35.759
-35.395
-35.015
-34.614
-34.186
-33.727
-33.229
-32.685
-32.089
-31.435
-30.717
-29.93
-29.069
-28.13
-27.111
-26.01
-24.828
-23.563
-22.217
-20.791
-19.288
-17.712
-16.065
-14.353
-12.581
-10.754
-8.88
-6.964
-5.016
-3.042
-1.052
0.946
2.942
4.928
6.892
8.826
10.721
12.566
14.351
16.066
17.701
19.247
20.694
22.031
23.25
24.343
25.3
26.116
26.783
27.296
27.648
27.837
27.857
27.707
27.383
26.885
26.212
25.364
24.342
23.149
21.788
20.262
18.575
16.733
14.741
12.606
10.335
7.935
5.414
2.78
0.043
-2.787
-5.7
-8.686
-11.734
-14.833
-17.971
-21.137
-24.319
-27.508
-30.69
-33.857
-36.996
-40.098
-43.152
-46.148
-49.078
-51.932
-54.702
-57.38
-59.958
-62.431
-64.791
-67.034
-69.153
-71.146
-73.006
-74.732
-76.318
-77.764
-79.065
-80.221
-81.231
-82.093
-82.809
-83.377
-83.8
-84.079
-84.216
-84.212
-84.071
-83.796
-83.389
-82.854
-82.197
-81.42
-80.53
-79.531
-78.429
-77.23
-75.941
-74.567
-73.114
-71.59
-70.002
-68.356
-66.661
-64.923
-63.151
-61.352
-59.536
-57.711
-55.885
-54.067
-52.265
-50.488
-48.744
-47.041
-45.387
-43.79
-42.258
-40.798
-39.418
-38.123
-36.921
-35.817
-34.816
-33.922
-33.141
-32.474
-31.925
-31.496
-31.188
-31.003
-30.94
-30.999
-31.179
-31.478
-31.895
-32.425
-33.065
-33.811
-34.657
-35.6
-36.632
-37.748
-38.94
-40.203
-41.53
-42.912
-44.342
-45.813
-47.317
-48.847
-50.395
-51.955
-53.519
-55.081
-56.636
-58.176
-59.698
-61.197
-62.668
-64.107
-65.511
-66.878
-68.206
-69.493
-70.737
-71.94
-73.1
-74.219
-75.297
-76.334
-77.334
-78.297
-79.227
-80.126
-80.997
-81.844
-82.672
-83.483
-84.284
-85.079
-85.87
-86.663
-87.461
-88.267
-89.085
-89.919
-90.77
-91.641
-92.535
-93.454
-94.401
-95.377
-96.382
-97.417
-98.482
-99.576
-100.698
-101.846
-103.02
-104.218
-105.439
-106.681
-107.944
-109.225
-110.521
-111.83
-113.147
-114.469
-115.79
-117.103
-118.402
-119.682
-120.938
-122.166
-123.362
-124.522
-125.643
-126.724
-127.764
-128.759
-129.705
-130.594
-131.421
-132.181
-132.869
-133.479
-134.005
-134.442
-134.791
-135.054
-135.23
-135.317
-135.309
-135.194
-134.966
-134.622
-134.163
-133.592
-132.913
-132.142
-131.301
-130.426
-129.551
-128.698
-127.875
-127.077
-126.3
-125.532
-124.768
-124.004
-123.224
-122.416
-121.57
-120.674
-119.712
-118.651
-117.432
-115.965
-114.164
-111.958
-109.307
-106.203
-102.654
-98.701
-94.398
-89.809
-85.025
-80.127
-75.186
-70.28
-65.483
-60.879
-56.597
-52.801
-49.664
-47.364
-46.039
-45.779
-46.629
-48.566
-51.538
-55.462
-60.22
-65.693
-71.746
-78.208
-84.914
-91.705
-98.397
-104.785
-110.603
-115.509
-119.22
-121.591
-122.617
-122.367
-120.822
-117.808
-113.182
-106.978
-99.248
-89.948
-78.783
-65.35
-49.604
-32.047
-13.51
5.287
23.759
41.32
57.09
69.981
79.217
84.591
86.559
85.694
82.352
76.833
69.672
61.663
53.812
47.209
42.268
39.024
37.658
38.257
40.696
44.766
49.557
53.071
53.71
50.45
42.175
29.183
13.296
-3.993
-20.082
-32.755
-42.591
-49.265
-50.933
-42.826
-16.654
36.176
122.141
242.01
392.405
564.157
740.991
904.169
1032.632
1108.463
1123.598
1079.415
984.513
853.899
705.18
554.402
419.28
313.278
241.102
202.951
190.179
191.052
196.975
199.876
196.933
187.828
173.396
157.606
142.438
129.648
119.321
108.191
94.95
79.29
62.096
46.414
34.02
25.251
19.982
17.386
16.713
17.577
19.455
21.676
23.686
25.134
25.829
25.726
24.865
23.257
20.946
18.047
14.666
10.896
6.833
2.548
-1.884
-6.362
-10.791
-15.071
-19.097
-22.776
-26.014
-28.748
-30.948
-32.609
-33.743
-34.382
-34.562
-34.332
-33.757
-32.897
-31.809
-30.546
-29.155
-27.684
-26.188
-24.713
-23.31
-22.011
-20.837
-19.801
-18.909
-18.162
-17.555
-17.081
-16.722
-16.464
-16.298
-16.213
-16.203
-16.257
-16.363
-16.507
-16.677
-16.862
-17.05
-17.232
-17.395
-17.531
-17.628
-17.679
-17.676
-17.612
-17.476
-17.258
-16.951
-16.545
-16.033
-15.409
-14.666
-13.799
-12.806
-11.684
-10.433
-9.054
-7.547
-5.915
-4.162
-2.293
-0.312
1.774
3.959
6.233
8.589
11.017
13.507
16.05
18.632
21.244
23.873
26.507
29.134
31.74
34.313
36.841
39.311
41.71
44.027
46.251
48.37
50.374
52.253
53.998
55.599
57.05
58.344
59.474
60.434
61.222
61.833
62.263
62.513
62.579
62.464
62.166
61.687
61.032
60.201
59.201
58.035
56.71
55.233
53.611
51.853
49.966
47.96
45.845
43.631
41.328
38.947
36.497
33.991
31.438
28.85
26.238
23.612
20.984
18.364
15.763
13.19
10.655
8.168
5.738
3.373
1.081
-1.131
-3.255
-5.285
-7.217
-9.045
-10.764
-12.373
-13.868
-15.249
-16.513
-17.662
-18.695
-19.613
-20.418
-21.112
-21.697
-22.176
-22.551
-22.828
-23.009
-23.099
-23.102
-23.024
-22.87
-22.645
-22.355
-22.005
-21.602
-21.151
-20.658
-20.13
-19.573
-18.992
-18.395
-17.786
-17.171
-16.557
-15.948
-15.349
-14.765
-14.2
-13.657
-13.14
-12.653
-12.198
-11.779
-11.399
-11.06
-10.765
-10.517
-10.317
-10.168
-10.072
-10.03
-10.045
-10.116
-10.246
-10.436
-10.687
-10.999
-11.373
-11.81
-12.309
-12.87
-13.493
-14.178
-14.922
-15.727
-16.589
-17.51
-18.486
-19.519
-20.605
-21.745
-22.937
-24.179
-25.47
-26.807
-28.19
-29.615
-31.08
-32.582
-34.119
-35.687
-37.284
-38.906
-40.549
-42.21
-43.884
-45.568
-47.256
-48.945
-50.629
-52.305
-53.967
-55.611
-57.234
-58.829
-60.395
-61.925
-63.416
-64.865
-66.266
-67.616
-68.912
-70.149
-71.323
-72.433
-73.475
-74.446
-75.344
-76.167
-76.913
-77.581
-78.17
-78.68
-79.11
-79.46
-79.731
-79.926
-80.045
-80.092
-80.069
-79.98
-79.828
-79.618
-79.354
-79.041
-78.683
-78.285
-77.852
-77.39
-76.903
-76.398
-75.88
-75.354
-74.825
-74.299
-73.781
-73.277
-72.79
-72.325
-71.886
-71.479
-71.105
-70.77
-70.476
-70.226
-70.022
-69.866
-69.758
-69.7
-69.691
-69.728
-69.81
-69.934
-70.097
-70.296
-70.525
-70.779
-71.055
-71.347
-71.649
-71.955
-72.26
-72.556
-72.838
-73.099
-73.334
-73.535
-73.697
-73.814
-73.88
-73.891
-73.839
-73.721
-73.531
-73.264
-72.914
-72.478
-71.951
-71.329
-70.61
-69.792
-68.876
-67.863
-66.755
-65.557
-64.274
-62.913
-61.482
-59.988
-58.44
-56.844
-55.212
-53.552
-51.876
-50.194
-48.517
-46.857
-45.234
-43.664
-42.165
-40.751
-39.432
-38.221
-37.138
-36.202
-35.433
-34.852
-34.477
-34.333
-34.455
-34.875
-35.621
-36.713
-38.149
-39.922
-42.025
-44.454
-47.21
-50.281
-53.634
-57.23
-61.039
-65.031
-69.17
-73.405
-77.633
-81.746
-85.651
-89.269
-92.57
-95.542
-98.163
-100.395
-102.203
-103.571
-104.517
-105.104
-105.336
-105.163
-104.618
-103.831
-103.101
-102.872
-103.517
-105.252
-108.305
-112.916
-119.095
-126.706
-135.224
-143.629
-151.009
-156.632
-159.761
-159.867
-156.842
-150.828
-142.733
-134.308
-127.177
-123.136
-124.15
-131.746
-147.237
-170.332
-198.387
-228.411
-256.921
-283.058
-309.252
-333.791
-352.248
-354.539
-324.21
-254.169
-146.385
-10.61
133.662
274.24
409.092
538.261
663.472
780.172
873.346
926.892
932.226
886.97
798.049
683.273
558.254
439.197
343.31
273.806
228.086
200.921
180.46
163.399
153.832
151.939
156.965
164.027
162.192
147.602
124.285
96.945
72.778
54.63
38.828
23.543
7.926
-7.674
-20.584
-29.786
-35.762
-39.03
-40.478
-40.79
-40.309
-39.487
-38.726
-38.168
-37.805
-37.604
-37.548
-37.63
-37.87
-38.22
-38.594
-38.96
-39.283
-39.528
-39.672
-39.666
-39.475
-39.113
-38.585
-37.893
-37.066
-36.114
-35.075
-34.025
-33.006
-32.061
-31.246
-30.582
-30.108
-29.87
-29.873
-30.111
-30.557
-31.139
-31.812
-32.55
-33.313
-34.072
-34.782
-35.372
-35.8
-36.047
-36.087
-35.915
-35.522
-34.889
-34.032
-32.987
-31.799
-30.54
-29.26
-27.981
-26.734
-25.538
-24.418
-23.408
-22.524
-21.761
-21.117
-20.589
-20.173
-19.869
-19.663
-19.522
-19.415
-19.301
-19.151
-18.947
-18.671
-18.31
-17.851
-17.282
-16.599
-15.808
-14.91
-13.905
-12.792
-11.57
-10.241
-8.814
-7.298
-5.702
-4.032
-2.297
-0.503
1.343
3.233
5.162
7.125
9.118
11.134
13.167
15.206
17.244
19.27
21.276
23.252
25.188
27.074
28.901
30.66
32.344
33.945
35.455
36.866
38.172
39.368
40.447
41.405
42.237
42.941
43.514
43.954
44.26
44.432
44.469
44.372
44.144
43.786
43.302
42.695
41.97
41.133
40.19
39.146
38.011
36.791
35.496
34.134
32.715
31.249
29.747
28.218
26.674
25.125
23.581
22.054
20.554
19.09
17.673
16.312
15.016
13.792
12.649
11.594
10.631
9.766
9.004
8.349
7.801
7.363
7.036
6.819
6.71
6.707
6.807
7.007
7.301
7.684
8.151
8.694
9.306
9.98
10.706
11.477
12.282
13.112
13.957
14.807
15.652
16.481
17.286
18.056
18.781
19.454
20.064
20.605
21.068
21.446
21.734
21.926
22.018
22.005
21.886
21.656
21.316
20.864
20.301
19.627
18.843
17.951
16.953
15.851
14.65
13.351
11.96
10.481
8.919
7.278
5.565
3.784
1.941
0.042
-1.908
-3.902
-5.935
-8.001
-10.095
-12.211
-14.343
-16.488
-18.639
-20.792
-22.943
-25.089
-27.224
-29.347
-31.453
-33.539
-35.603
-37.64
-39.648
-41.624
-43.565
-45.466
-47.325
-49.138
-50.902
-52.612
-54.264
-55.855
-57.38
-58.834
-60.212
-61.51
-62.722
-63.842
-64.867
-65.789
-66.604
-67.306
-67.89
-68.35
-68.681
-68.877
-68.932
-68.843
-68.603
-68.208
-67.654
-66.938
-66.055
-65.005
-63.784
-62.392
-60.829
-59.096
-57.192
-55.122
-52.887
-50.492
-47.943
-45.245
-42.404
-39.43
-36.331
-33.117
-29.798
-26.386
-22.891
-19.327
-15.706
-12.042
-8.348
-4.638
-0.927
2.772
6.443
10.073
13.647
17.151
20.573
23.898
27.116
30.214
33.183
36.012
38.693
41.219
43.583
45.779
47.803
49.653
51.327
52.825
54.149
55.3
56.284
57.106
57.773
58.291
58.669
58.917
59.044
59.063
58.986
58.824
58.591
58.302
57.97
57.61
57.236
56.863
56.505
56.175
55.887
55.653
55.485
55.394
55.391
55.485
55.684
55.996
56.427
56.983
57.667
58.482
59.429
60.505
61.708
63.032
64.47
66.014
67.653
69.374
71.166
73.015
74.907
76.829
78.762
80.687
82.584
84.428
86.199
87.875
89.43
90.844
92.097
93.174
94.068
94.772
95.268
95.539
95.561
95.307
94.761
93.91
92.737
91.236
89.403
87.24
84.768
82.006
78.967
75.653
72.054
68.166
64.015
59.653
55.146
50.573
46.009
41.517
37.172
33.045
29.194
25.663
22.485
19.667
17.206
15.149
13.568
12.457
11.749
11.261
10.657
9.664
8.119
5.797
2.519
-1.706
-6.812
-12.432
-17.834
-22.427
-25.84
-27.702
-27.706
-25.858
-22.308
-17.44
-13.238
-11.489
-12.062
-15.915
-21.681
-27.395
-36.881
-50.902
-69.536
-94.514
-118.942
-139.457
-157.298
-167.866
-169.793
-155.889
-111.552
-33.09
77.738
211.174
349.226
485.237
617.223
743.02
861.537
957.745
1012.326
1014.08
956.755
850.555
718.006
579.091
455.11
359.852
293.015
250.83
223.358
198.586
173.203
147.188
123.43
107.294
98.859
95.196
92.993
88.208
79.491
67.691
53.717
38.792
24.037
10.219
-1.732
-10.871
-16.916
-20.08
-20.764
-19.591
-17.167
-14.015
-10.737
-7.941
-5.987
-5.023
-5.071
-6.019
-7.764
-10.236
-13.309
-16.841
-20.703
-24.768
-28.932
-33.107
-37.189
-41.062
-44.61
-47.72
-50.291
-52.267
-53.621
-54.355
-54.495
-54.076
-53.146
-51.765
-50.004
-47.935
-45.624
-43.132
-40.514
-37.83
-35.14
-32.504
-29.976
-27.594
-25.383
-23.357
-21.522
-19.882
-18.433
-17.166
-16.066
-15.12
-14.316
-13.646
-13.101
-12.671
-12.339
-12.093
-11.917
-11.796
-11.718
-11.669
-11.635
-11.601
-11.556
-11.487
-11.384
-11.233
-11.022
-10.737
-10.367
-9.899
-9.324
-8.631
-7.811
-6.858
-5.765
-4.528
-3.147
-1.618
0.057
1.877
3.839
5.938
8.17
10.527
13.002
15.587
18.271
21.045
23.896
26.812
29.779
32.784
35.812
38.848
41.876
44.879
47.843
50.751
53.588
56.337
58.982
61.51
63.906
66.154
68.242
70.156
71.885
73.418
74.743
75.853
76.739
77.393
77.809
77.983
77.911
77.588
77.014
76.187
75.108
73.779
72.2
70.378
68.315
66.019
63.496
60.755
57.805
54.656
51.319
47.806
44.129
40.301
36.336
32.249
28.054
23.766
19.401
14.975
10.504
6.004
1.492
-3.017
-7.507
-11.963
-16.369
-20.711
-24.974
-29.145
-33.212
-37.161
-40.982
-44.664
-48.198
-51.575
-54.788
-57.83
-60.696
-63.381
-65.884
-68.2
-70.33
-72.272
-74.028
-75.599
-76.987
-78.197
-79.233
-80.099
-80.801
-81.347
-81.743
-81.997
-82.118
-82.115
-81.996
-81.77
-81.448
-81.039
-80.553
-79.998
-79.384
-78.72
-78.015
-77.278
-76.515
-75.736
-74.948
-74.156
-73.367
-72.587
-71.821
-71.074
-70.35
-69.653
-68.986
-68.353
-67.755
-67.195
-66.676
-66.197
-65.761
-65.368
-65.018
-64.712
-64.449
-64.229
-64.051
-63.915
-63.82
-63.766
-63.752
-63.778
-63.843
-63.948
-64.092
-64.276
-64.5
-64.765
-65.071
-65.42
-65.812
-66.248
-66.731
-67.26
-67.837
-68.463
-69.139
-69.866
-70.645
-71.476
-72.359
-73.296
-74.285
-75.327
-76.421
-77.566
-78.763
-80.01
-81.305
-82.646
-84.033
-85.462
-86.931
-88.437
-89.975
-91.543
-93.135
-94.748
-96.377
-98.015
-99.659
-101.303
-102.941
-104.568
-106.178
-107.767
-109.329
-110.86
-112.354
-113.807
-115.216
-116.576
-117.885
-119.139
-120.336
-121.474
-122.55
-123.565
-124.516
-125.402
-126.224
-126.982
-127.676
-128.307
-128.876
-129.386
-129.838
-130.235
-130.579
-130.875
-131.125
-131.332
-131.501
-131.634
-131.735
-131.808
-131.854
-131.877
-131.879
-131.861
-131.826
-131.773
-131.705
-131.62
-131.519
-131.401
-131.264
-131.108
-130.93
-130.728
-130.499
-130.242
-129.951
-129.624
-129.256
-128.844
-128.383
-127.869
-127.296
-126.66
-125.956
-125.178
-124.323
-123.384
-122.357
-121.24
-120.027
-118.716
-117.307
-115.798
-114.189
-112.48
-110.673
-108.771
-106.777
-104.695
-102.53
-100.29
-97.981
-95.611
-93.191
-90.73
-88.239
-85.729
-83.215
-80.714
-78.242
-75.817
-73.461
-71.192
-69.034
-67.005
-65.123
-63.404
-61.861
-60.51
-59.364
-58.437
-57.74
-57.288
-57.088
-57.148
-57.472
-58.058
-58.896
-59.973
-61.28
-62.811
-64.578
-66.59
-68.851
-71.371
-74.151
-77.193
-80.49
-84.013
-87.721
-91.573
-95.532
-99.588
-103.732
-107.938
-112.172
-116.37
-120.446
-124.329
-127.93
-131.137
-133.919
-136.311
-138.419
-140.467
-142.644
-145.06
-147.888
-151.258
-155.057
-159.021
-162.703
-165.568
-167.382
-168.086
-167.445
-165.264
-161.662
-157.05
-152.218
-147.948
-144.574
-142.266
-141.52
-143.235
-148.277
-157.132
-169.963
-185.824
-202.823
-219.674
-234.351
-247.086
-261.163
-275.78
-287.661
-287.307
-258.966
-196.245
-100.568
18.702
145.051
272.711
401.765
530.338
654.076
755.117
812.272
815.164
764.173
673.405
560.78
437.393
310.955
187.243
74.492
-15.625
-75.661
-104.114
-105.726
-89.255
-61.727
-30.191
-2.752
14.429
17.23
6.856
-9.155
-24.244
-35.095
-41.76
-48.103
-56.129
-65.027
-73.386
-78.957
-80.583
-78.548
-73.4
-66.137
-57.998
-49.906
-42.436
-35.906
-30.419
-26.068
-22.952
-21.011
-19.968
-19.527
-19.484
-19.715
-20.192
-20.862
-21.612
-22.337
-22.957
-23.394
-23.573
-23.431
-22.906
-21.957
-20.584
-18.802
-16.645
-14.158
-11.396
-8.412
-5.259
-1.984
1.365
4.736
8.074
11.324
14.433
17.366
20.099
22.615
24.906
26.973
28.82
30.461
31.914
33.193
34.31
35.275
36.097
36.787
37.359
37.828
38.208
38.512
38.751
38.937
39.084
39.201
39.298
39.385
39.471
39.564
39.676
39.818
40.003
40.24
40.54
40.912
41.366
41.908
42.544
43.278
44.113
45.051
46.092
47.235
48.48
49.822
51.258
52.783
54.391
56.076
57.832
59.648
61.518
63.431
65.377
67.347
69.327
71.308
73.276
75.219
77.124
78.979
80.77
82.483
84.106
85.626
87.029
88.305
89.44
90.425
91.25
91.906
92.384
92.678
92.783
92.693
92.405
91.916
91.226
90.333
89.238
87.943
86.451
84.765
82.89
80.833
78.6
76.198
73.637
70.927
68.078
65.101
62.01
58.817
55.535
52.18
48.766
45.307
41.82
38.318
34.819
31.337
27.887
24.484
21.142
17.875
14.696
11.618
8.652
5.81
3.102
0.537
-1.876
-4.129
-6.214
-8.127
-9.862
-11.414
-12.782
-13.963
-14.956
-15.762
-16.381
-16.815
-17.067
-17.141
-17.041
-16.774
-16.344
-15.758
-15.023
-14.148
-13.14
-12.008
-10.761
-9.406
-7.954
-6.413
-4.792
-3.101
-1.348
0.457
2.305
4.189
6.098
8.024
9.959
11.896
13.825
15.741
17.636
19.503
21.337
23.131
24.88
26.578
28.222
29.805
31.325
32.778
34.158
35.464
36.692
37.84
38.903
39.88
40.768
41.565
42.267
42.873
43.382
43.79
44.096
44.3
44.399
44.394
44.284
44.068
43.746
43.319
42.786
42.149
41.407
40.562
39.615
38.567
37.419
36.174
34.834
33.4
31.876
30.264
28.567
26.788
24.931
23.001
21.001
18.937
16.813
14.635
12.409
10.141
7.836
5.501
3.142
0.763
-1.628
-4.026
-6.426
-8.822
-11.209
-13.582
-15.936
-18.267
-20.569
-22.838
-25.07
-27.261
-29.407
-31.505
-33.549
-35.538
-37.466
-39.332
-41.133
-42.864
-44.525
-46.113
-47.627
-49.065
-50.426
-51.709
-52.915
-54.043
-55.092
-56.063
-56.956
-57.769
-58.503
-59.158
-59.732
-60.225
-60.635
-60.961
-61.201
-61.354
-61.417
-61.389
-61.267
-61.049
-60.735
-60.322
-59.81
-59.196
-58.481
-57.663
-56.742
-55.718
-54.589
-53.355
-52.015
-50.57
-49.019
-47.362
-45.599
-43.731
-41.756
-39.677
-37.495
-35.211
-32.826
-30.344
-27.768
-25.104
-22.356
-19.532
-16.637
-13.682
-10.673
-7.62
-4.533
-1.421
1.707
4.838
7.964
11.073
14.154
17.194
20.181
23.1
25.938
28.68
31.31
33.812
36.168
38.362
40.378
42.201
43.818
45.217
46.384
47.308
47.98
48.397
48.553
48.444
48.065
47.413
46.492
45.315
43.895
42.244
40.367
38.262
35.925
33.36
30.572
27.561
24.327
20.871
17.206
13.371
9.416
5.386
1.318
-2.776
-6.893
-11.008
-15.073
-19.017
-22.757
-26.231
-29.409
-32.228
-34.612
-36.555
-38.11
-39.471
-40.965
-42.861
-45.333
-48.473
-52.297
-56.686
-61.474
-66.306
-70.528
-73.482
-74.554
-73.395
-70.04
-64.804
-58.105
-50.604
-43.448
-38.014
-35.902
-38.567
-46.779
-60.77
-80.704
-105.12
-130.652
-154.208
-171.888
-182.611
-189.281
-191.16
-184.655
-162.11
-112.02
-30.477
78.766
206.845
341.918
476.179
602.699
713.18
796.221
837.751
831.082
776.79
682.513
563.833
434.054
305.561
193.063
105.932
49.007
21.959
14.413
14.055
14.134
11.884
9.737
12.331
19.253
27.227
33.309
34.748
31.118
23.737
13.69
1.944
-9.986
-20.314
-28.085
-33.021
-35.194
-35.134
-33.175
-29.311
-24.172
-18.878
-14.092
-10.203
-7.368
-5.375
-4.215
-4.11
-4.975
-6.514
-8.5
-10.692
-12.974
-15.384
-17.848
-20.214
-22.364
-24.189
-25.633
-26.7
-27.374
-27.627
-27.454
-26.858
-25.871
-24.553
-22.957
-21.129
-19.113
-16.943
-14.666
-12.335
-10.003
-7.727
-5.546
-3.478
-1.542
0.256
1.91
3.417
4.788
6.041
7.19
8.248
9.223
10.12
10.95
11.724
12.456
13.159
13.843
14.517
15.191
15.873
16.57
17.29
18.038
18.818
19.633
20.489
21.394
22.352
23.37
24.453
25.604
26.829
28.129
29.507
30.963
32.496
34.105
35.787
37.54
39.358
41.239
43.175
45.161
47.19
49.254
51.346
53.456
55.577
57.698
59.811
61.906
63.973
66.004
67.989
69.917
71.781
73.571
75.277
76.891
78.404
79.808
81.095
82.258
83.289
84.183
84.933
85.534
85.983
86.275
86.407
86.377
86.183
85.824
85.301
84.614
83.764
82.754
81.587
80.267
78.799
77.187
75.438
73.557
71.552
69.43
67.199
64.868
62.446
59.941
57.365
54.727
52.037
49.307
46.547
43.769
40.982
38.199
35.429
32.685
29.976
27.313
24.707
22.167
19.702
17.323
15.036
12.85
10.772
8.807
6.96
5.237
3.641
2.175
0.841
-0.36
-1.428
-2.362
-3.163
-3.835
-4.379
-4.798
-5.099
-5.284
-5.36
-5.332
-5.207
-4.991
-4.692
-4.317
-3.874
-3.37
-2.814
-2.214
-1.578
-0.916
-0.234
0.459
1.155
1.847
2.529
3.193
3.834
4.447
5.026
5.568
6.067
6.522
6.929
7.287
7.592
7.845
8.046
8.193
8.287
8.33
8.322
8.265
8.161
8.011
7.818
7.584
7.311
7.003
6.661
6.289
5.89
5.467
5.022
4.558
4.079
3.587
3.083
2.571
2.052
1.527
0.999
0.469
-0.062
-0.593
-1.123
-1.652
-2.178
-2.702
-3.224
-3.743
-4.259
-4.773
-5.283
-5.792
-6.297
-6.799
-7.299
-7.794
-8.286
-8.774
-9.258
-9.736
-10.209
-10.677
-11.138
-11.593
-12.04
-12.478
-12.908
-13.328
-13.738
-14.135
-14.521
-14.894
-15.252
-15.596
-15.925
-16.238
-16.534
-16.814
-17.076
-17.321
-17.547
-17.755
-17.944
-18.114
-18.265
-18.398
-18.513
-18.609
-18.686
-18.744
-18.783
-18.803
-18.803
-18.782
-18.739
-18.673
-18.583
-18.467
-18.326
-18.157
-17.959
-17.73
-17.468
-17.172
-16.839
-16.466
-16.052
-15.592
-15.085
-14.528
-13.919
-13.254
-12.532
-11.749
-10.903
-9.994
-9.018
-7.974
-6.862
-5.679
-4.427
-3.107
-1.722
-0.272
1.238
2.804
4.422
6.084
7.787
9.522
11.284
13.063
14.851
16.638
18.413
20.165
21.88
23.546
25.146
26.665
28.087
29.393
30.565
31.584
32.434
33.1
33.568
33.826
33.862
33.668
33.236
32.564
31.646
30.477
29.055
27.378
25.455
23.301
20.929
18.352
15.575
12.599
9.424
6.058
2.499
-1.257
-5.212
-9.368
-13.705
-18.175
-22.739
-27.354
-31.999
-36.675
-41.364
-46.027
-50.609
-55.028
-59.209
-63.118
-66.686
-69.807
-72.452
-74.635
-76.484
-78.303
-80.373
-82.882
-85.94
-89.553
-93.573
-97.763
-101.732
-104.831
-106.317
-105.526
-102.148
-96.279
-88.417
-79.306
-69.752
-60.913
-54.46
-52.126
-55.093
-63.99
-78.778
-99.005
-124.214
-152.209
-178.488
-198.661
-209.888
-213.029
-211.757
-206.699
-192.388
-158.452
-96.026
-3.319
111.347
232.994
350.43
456.963
550.172
629.911
690.137
720.106
709.834
651.9
545.868
405.151
250.218
104.998
-5.559
-73.462
-102.325
-102.301
-91.411
-75.989
-57.836
-40.961
-24.452
-14.386
-14.963
-21.891
-32.934
-43.084
-49.742
-56.541
-64.405
-73.555
-83.516
-91.304
-95.722
-96.934
-94.918
-90.643
-85.32
-79.661
-74.406
-70.062
-66.668
-64.257
-62.981
-62.792
-63.461
-64.78
-66.497
-68.426
-70.549
-72.825
-75.132
-77.365
-79.419
-81.182
-82.604
-83.652
-84.277
-84.456
-84.183
-83.463
-82.334
-80.849
-79.052
-76.986
-74.695
-72.218
-69.606
-66.919
-64.215
-61.553
-58.977
-56.514
-54.188
-52.011
-49.994
-48.141
-46.445
-44.893
-43.476
-42.189
-41.03
-39.995
-39.079
-38.273
-37.569
-36.956
-36.426
-35.974
-35.591
-35.269
-35.003
-34.784
-34.609
-34.472
-34.367
-34.284
-34.215
-34.15
-34.079
-33.993
-33.882
-33.737
-33.55
-33.312
-33.018
-32.661
-32.237
-31.742
-31.172
-30.524
-29.797
-28.99
-28.101
-27.133
-26.085
-24.961
-23.763
-22.494
-21.159
-19.763
-18.312
-16.812
-15.271
-13.695
-12.093
-10.475
-8.849
-7.225
-5.614
-4.026
-2.472
-0.962
0.493
1.881
3.192
4.417
5.546
6.571
7.482
8.272
8.934
9.462
9.85
10.094
10.189
10.133
9.923
9.557
9.035
8.357
7.525
6.539
5.403
4.122
2.698
1.138
-0.551
-2.363
-4.288
-6.319
-8.446
-10.657
-12.943
-15.29
-17.688
-20.123
-22.584
-25.057
-27.53
-29.992
-32.428
-34.828
-37.181
-39.474
-41.698
-43.843
-45.898
-47.856
-49.709
-51.448
-53.068
-54.563
-55.927
-57.158
-58.251
-59.204
-60.017
-60.689
-61.22
-61.612
-61.867
-61.99
-61.984
-61.856
-61.611
-61.256
-60.8
-60.251
-59.618
-58.91
-58.136
-57.307
-56.432
-55.521
-54.585
-53.632
-52.673
-51.717
-50.774
-49.853
-48.962
-48.109
-47.303
-46.551
-45.859
-45.235
-44.684
-44.211
-43.821
-43.519
-43.307
-43.188
-43.164
-43.236
-43.405
-43.668
-44.025
-44.474
-45.011
-45.634
-46.337
-47.116
-47.966
-48.882
-49.857
-50.885
-51.96
-53.075
-54.221
-55.393
-56.582
-57.781
-58.982
-60.176
-61.357
-62.516
-63.644
-64.735
-65.779
-66.769
-67.696
-68.554
-69.334
-70.03
-70.635
-71.142
-71.547
-71.843
-72.027
-72.094
-72.041
-71.864
-71.562
-71.132
-70.573
-69.884
-69.065
-68.115
-67.036
-65.83
-64.497
-63.041
-61.465
-59.772
-57.966
-56.052
-54.035
-51.92
-49.713
-47.421
-45.052
-42.613
-40.111
-37.556
-34.955
-32.318
-29.651
-26.964
-24.265
-21.561
-18.861
-16.172
-13.501
-10.856
-8.242
-5.666
-3.134
-0.651
1.779
4.153
6.466
8.716
10.9
13.018
15.068
17.05
18.964
20.81
22.59
24.306
25.961
27.558
29.102
30.597
32.048
33.461
34.841
36.194
37.525
38.842
40.148
41.449
42.751
44.06
45.379
46.713
48.065
49.439
50.837
52.26
53.708
55.18
56.677
58.196
59.736
61.291
62.858
64.43
66.003
67.569
69.12
70.644
72.128
73.561
74.931
76.226
77.43
78.527
79.501
80.335
81.019
81.54
81.884
82.034
81.977
81.705
81.213
80.502
79.565
78.385
76.952
75.262
73.312
71.106
68.643
65.908
62.894
59.604
56.045
52.235
48.181
43.879
39.328
34.537
29.542
24.409
19.194
13.946
8.726
3.588
-1.402
-6.152
-10.604
-14.715
-18.43
-21.727
-24.577
-26.944
-28.848
-30.283
-31.233
-31.84
-32.334
-32.925
-33.891
-35.343
-37.224
-39.729
-43.141
-47.401
-52.184
-56.933
-60.901
-63.877
-66.114
-67.411
-67.358
-66.01
-63.984
-62.549
-63.342
-67.285
-74.466
-85.405
-100.948
-119.983
-139.28
-155.356
-163.757
-164.105
-161.025
-154.246
-141.449
-116.549
-66.369
14.042
123.752
259.735
408.365
555.262
686.701
783.687
832.604
829.045
773.634
676.863
557.615
430.748
311.386
214.41
142.268
94.87
68.032
49.165
33.099
18.589
5.466
-1.43
-1.572
1.431
4.221
3.06
-3.47
-14.368
-28.33
-43.871
-59.578
-74.139
-86.257
-95.236
-101.005
-103.871
-104.409
-103.2
-100.808
-97.914
-95.206
-93.125
-91.865
-91.444
-91.761
-92.732
-94.305
-96.384
-98.843
-101.576
-104.488
-107.502
-110.568
-113.615
-116.54
-119.239
-121.601
-123.517
-124.925
-125.792
-126.099
-125.853
-125.071
-123.776
-122.011
-119.833
-117.294
-114.45
-111.348
-108.032
-104.553
-100.966
-97.329
-93.7
-90.118
-86.61
-83.194
-79.885
-76.688
-73.609
-70.643
-67.778
-65.008
-62.327
-59.732
-57.22
-54.787
-52.425
-50.126
-47.883
-45.688
-43.535
-41.42
-39.335
-37.276
-35.237
-33.216
-31.21
-29.215
-27.226
-25.238
-23.243
-21.238
-19.217
-17.176
-15.109
-13.012
-10.884
-8.722
-6.526
-4.296
-2.034
0.26
2.582
4.929
7.296
9.68
12.075
14.476
16.877
19.272
21.654
24.016
26.351
28.653
30.913
33.124
35.278
37.367
39.384
41.321
43.17
44.923
46.573
48.112
49.532
50.827
51.988
53.009
53.885
54.609
55.176
55.583
55.825
55.899
55.804
55.537
55.098
54.486
53.7
52.742
51.613
50.314
48.846
47.214
45.42
43.467
41.361
39.104
36.703
34.163
31.49
28.689
25.769
22.736
19.599
16.366
13.046
9.649
6.184
2.661
-0.909
-4.517
-8.152
-11.804
-15.463
-19.119
-22.762
-26.384
-29.974
-33.525
-37.027
-40.473
-43.854
-47.165
-50.397
-53.545
-56.603
-59.565
-62.426
-65.181
-67.826
-70.356
-72.767
-75.057
-77.224
-79.265
-81.179
-82.966
-84.626
-86.159
-87.567
-88.852
-90.015
-91.059
-91.988
-92.804
-93.512
-94.116
-94.619
-95.027
-95.343
-95.573
-95.723
-95.797
-95.8
-95.737
-95.612
-95.431
-95.2
-94.923
-94.607
-94.259
-93.888
-93.502
-93.11
-92.72
-92.341
-91.98
-91.644
-91.341
-91.075
-90.85
-90.671
-90.544
-90.479
-90.479
-90.552
-90.701
-90.931
-91.247
-91.653
-92.15
-92.736
-93.412
-94.182
-95.056
-96.05
-97.174
-98.431
-99.82
-101.339
-102.985
-104.748
-106.607
-108.531
-110.487
-112.453
-114.411
-116.346
-118.237
-120.049
-121.737
-123.261
-124.598
-125.736
-126.676
-127.407
-127.933
-128.278
-128.49
-128.636
-128.77
-128.91
-129.093
-129.377
-129.834
-130.576
-131.706
-133.244
-135.205
-137.534
-140.023
-142.464
-144.592
-146.042
-146.623
-146.258
-144.79
-142.521
-140.226
-138.604
-138.53
-139.823
-140.581
-139.514
-136.778
-134.984
-138.408
-147.899
-158.397
-159.356
-139.984
-95.98
-32.1
38.806
103.853
155.506
192.088
217.534
235.398
246.352
249.722
244.061
229.515
208.629
184.821
161.045
139.546
121.7
108.312
100.171
97.607
99.923
105.753
113.661
122.131
130.166
137.208
142.47
145.494
146.386
145.515
143.555
141.362
139.381
137.806
136.938
136.854
137.478
138.737
140.349
141.955
143.41
144.657
145.652
146.457
147.113
147.625
148.067
148.51
148.984
149.511
150.093
150.713
151.383
152.113
152.897
153.731
154.601
155.482
156.355
157.192
157.959
158.631
159.191
159.626
159.928
160.085
160.079
159.889
159.486
158.833
157.904
156.667
155.103
153.195
150.932
148.314
145.355
142.072
138.474
134.559
130.327
125.786
120.976
115.954
110.798
105.611
100.486
95.523
90.811
86.419
82.413
78.853
75.767
73.156
71.021
69.333
68.089
67.319
66.931
66.753
66.484
65.669
64.003
61.382
57.687
52.779
46.641
39.342
31.415
23.97
17.752
12.999
9.763
7.931
7.432
8.184
9.223
8.563
4.544
-3.698
-16.437
-33.538
-54.889
-80.015
-106.166
-128.371
-141.719
-142.76
-132.004
-111.644
-81.786
-40.337
19.136
102.638
211.544
343.616
490.185
639.383
777.863
890.974
965.428
989.76
959.733
877.437
753.239
607.633
460.575
332.855
240.538
186.042
167.651
176.181
196.299
217.596
228.684
222.22
200.249
167.045
131.661
102.66
81.743
67.153
54.01
38.541
20.944
3.379
-11.281
-21.692
-28.148
-31.39
-32.312
-31.444
-29.197
-26.223
-23.017
-19.874
-16.994
-14.456
-12.398
-10.985
-10.269
-10.225
-10.788
-11.896
-13.51
-15.589
-18.047
-20.777
-23.664
-26.593
-29.477
-32.225
-34.742
-36.932
-38.695
-39.964
-40.716
-40.949
-40.686
-39.964
-38.823
-37.319
-35.523
-33.499
-31.31
-29.014
-26.653
-24.276
-21.932
-19.672
-17.546
-15.592
-13.831
-12.278
-10.938
-9.811
-8.897
-8.184
-7.654
-7.293
-7.089
-7.03
-7.108
-7.313
-7.629
-8.042
-8.536
-9.095
-9.706
-10.354
-11.024
-11.702
-12.375
-13.03
-13.658
-14.247
-14.784
-15.258
-15.656
-15.969
-16.187
-16.302
-16.306
-16.193
-15.959
-15.601
-15.117
-14.509
-13.777
-12.924
-11.952
-10.868
-9.677
-8.385
-7.002
-5.534
-3.993
-2.389
-0.733
0.961
2.682
4.416
6.148
7.863
9.548
11.187
12.766
14.271
15.687
17
18.198
19.269
20.2
20.981
21.603
22.056
22.332
22.426
22.333
22.047
21.567
20.89
20.016
18.946
17.682
16.226
14.583
12.757
10.756
8.588
6.26
3.782
1.166
-1.577
-4.433
-7.391
-10.434
-13.55
-16.721
-19.934
-23.172
-26.42
-29.662
-32.882
-36.065
-39.196
-42.261
-45.245
-48.135
-50.919
-53.584
-56.12
-58.517
-60.764
-62.854
-64.779
-66.533
-68.111
-69.509
-70.723
-71.753
-72.597
-73.257
-73.734
-74.032
-74.154
-74.107
-73.896
-73.529
-73.014
-72.361
-71.578
-70.676
-69.666
-68.559
-67.367
-66.101
-64.773
-63.395
-61.979
-60.536
-59.078
-57.617
-56.163
-54.727
-53.319
-51.95
-50.628
-49.362
-48.16
-47.031
-45.979
-45.012
-44.133
-43.349
-42.661
-42.072
-41.584
-41.198
-40.915
-40.732
-40.65
-40.666
-40.777
-40.98
-41.272
-41.649
-42.107
-42.641
-43.246
-43.918
-44.651
-45.44
-46.281
-47.168
-48.095
-49.058
-50.052
-51.072
-52.113
-53.17
-54.239
-55.316
-56.398
-57.48
-58.561
-59.636
-60.705
-61.764
-62.812
-63.849
-64.873
-65.884
-66.881
-67.866
-68.838
-69.799
-70.748
-71.688
-72.618
-73.541
-74.457
-75.367
-76.272
-77.174
-78.073
-78.97
-79.866
-80.761
-81.658
-82.555
-83.454
-84.354
-85.256
-86.16
-87.066
-87.974
-88.884
-89.795
-90.706
-91.618
-92.53
-93.441
-94.351
-95.257
-96.16
-97.058
-97.949
-98.834
-99.709
-100.574
-101.427
-102.268
-103.096
-103.908
-104.705
-105.485
-106.247
-106.992
-107.718
-108.426
-109.114
-109.783
-110.433
-111.063
-111.673
-112.265
-112.836
-113.387
-113.918
-114.428
-114.916
-115.381
-115.82
-116.233
-116.617
-116.971
-117.291
-117.576
-117.822
-118.028
-118.19
-118.306
-118.373
-118.388
-118.349
-118.251
-118.092
-117.869
-117.577
-117.213
-116.774
-116.256
-115.655
-114.967
-114.19
-113.319
-112.351
-111.283
-110.112
-108.836
-107.453
-105.962
-104.363
-102.656
-100.843
-98.928
-96.914
-94.806
-92.608
-90.328
-87.971
-85.544
-83.054
-80.511
-77.922
-75.296
-72.645
-69.98
-67.313
-64.66
-62.036
-59.455
-56.934
-54.49
-52.141
-49.907
-47.805
-45.852
-44.063
-42.454
-41.042
-39.842
-38.867
-38.123
-37.619
-37.36
-37.35
-37.597
-38.1
-38.851
-39.84
-41.058
-42.499
-44.166
-46.059
-48.175
-50.506
-53.048
-55.798
-58.751
-61.892
-65.188
-68.593
-72.053
-75.523
-78.971
-82.369
-85.698
-88.914
-91.954
-94.752
-97.239
-99.358
-101.08
-102.36
-103.125
-103.39
-103.272
-102.976
-102.834
-103.14
-104.006
-105.47
-107.635
-110.439
-113.642
-116.863
-119.303
-120.072
-118.794
-115.406
-109.636
-101.64
-92.052
-81.299
-71.641
-65.909
-64.541
-68.373
-76.312
-85.257
-95.885
-108.249
-122.844
-142.828
-167.297
-193.402
-215.097
-220.058
-196.311
-136.544
-40.991
81.138
216.902
358.209
501.417
642.89
776.464
884.708
946.076
947.564
884.451
770.103
630.825
489.935
370.485
285.446
232.203
204.631
190.37
176.07
158.56
138.479
119.589
107.687
102.723
101.396
100.17
95.503
86.623
74.678
60.872
46.574
32.938
20.944
11.607
5.413
2.26
1.756
3.316
6.321
10.197
14.287
17.907
20.648
22.344
22.967
22.615
21.368
19.273
16.438
13.014
9.132
4.925
0.505
-4.049
-8.612
-13.041
-17.189
-20.909
-24.1
-26.715
-28.723
-30.118
-30.909
-31.115
-30.78
-29.966
-28.736
-27.151
-25.273
-23.155
-20.862
-18.466
-16.036
-13.642
-11.337
-9.151
-7.11
-5.23
-3.518
-1.981
-0.612
0.601
1.668
2.595
3.39
4.057
4.605
5.048
5.398
5.67
5.875
6.026
6.134
6.21
6.266
6.311
6.357
6.41
6.482
6.584
6.73
6.933
7.203
7.554
7.995
8.539
9.194
9.968
10.867
11.896
13.058
14.355
15.789
17.358
19.059
20.888
22.841
24.911
27.089
29.368
31.736
34.182
36.695
39.261
41.867
44.5
47.144
49.785
52.408
54.998
57.54
60.018
62.418
64.725
66.924
69.001
70.943
72.736
74.369
75.829
77.108
78.194
79.082
79.763
80.232
80.485
80.52
80.335
79.931
79.308
78.469
77.419
76.162
74.706
73.059
71.228
69.223
67.056
64.737
62.278
59.692
56.992
54.192
51.306
48.348
45.333
42.275
39.191
36.094
33
29.925
26.883
23.888
20.955
18.096
15.326
12.657
10.098
7.662
5.358
3.192
1.174
-0.692
-2.401
-3.948
-5.333
-6.552
-7.607
-8.499
-9.228
-9.799
-10.215
-10.481
-10.602
-10.586
-10.439
-10.168
-9.783
-9.291
-8.703
-8.027
-7.275
-6.456
-5.581
-4.662
-3.71
-2.736
-1.751
-0.765
0.21
1.165
2.089
2.975
3.813
4.596
5.317
5.971
6.55
7.053
7.473
7.81
8.06
8.223
8.299
8.287
8.189
8.006
7.74
7.394
6.971
6.474
5.908
5.276
4.582
3.834
3.034
2.19
1.307
0.391
-0.552
-1.515
-2.493
-3.479
-4.469
-5.456
-6.436
-7.403
-8.354
-9.285
-10.192
-11.072
-11.923
-12.743
-13.53
-14.285
-15.007
-15.695
-16.352
-16.976
-17.571
-18.137
-18.675
-19.188
-19.678
-20.147
-20.598
-21.033
-21.454
-21.867
-22.272
-22.674
-23.076
-23.481
-23.892
-24.312
-24.744
-25.191
-25.655
-26.138
-26.643
-27.172
-27.725
-28.304
-28.91
-29.542
-30.201
-30.886
-31.595
-32.328
-33.083
-33.857
-34.649
-35.456
-36.277
-37.107
-37.945
-38.787
-39.631
-40.474
-41.311
-42.141
-42.959
-43.764
-44.551
-45.318
-46.062
-46.781
-47.472
-48.132
-48.76
-49.354
-49.911
-50.431
-50.912
-51.354
-51.757
-52.12
-52.444
-52.731
-52.98
-53.195
-53.376
-53.525
-53.646
-53.74
-53.811
-53.86
-53.892
-53.909
-53.913
-53.909
-53.898
-53.884
-53.867
-53.851
-53.837
-53.826
-53.819
-53.818
-53.822
-53.833
-53.85
-53.872
-53.899
-53.928
-53.958
-53.987
-54.011
-54.027
-54.03
-54.018
-53.985
-53.927
-53.84
-53.717
-53.553
-53.343
-53.079
-52.757
-52.371
-51.914
-51.382
-50.769
-50.07
-49.282
-48.403
-47.429
-46.358
-45.189
-43.922
-42.558
-41.095
-39.537
-37.883
-36.136
-34.3
-32.382
-30.388
-28.324
-26.201
-24.03
-21.825
-19.599
-17.364
-15.134
-12.922
-10.743
-8.613
-6.547
-4.564
-2.682
-0.921
0.699
2.158
3.437
4.523
5.407
6.085
6.551
6.796
6.809
6.578
6.088
5.322
4.259
2.876
1.163
-0.881
-3.254
-5.945
-8.949
-12.258
-15.859
-19.744
-23.903
-28.311
-32.937
-37.724
-42.596
-47.461
-52.222
-56.775
-61.035
-64.924
-68.36
-71.267
-73.574
-75.241
-76.249
-76.564
-76.216
-75.296
-73.946
-72.431
-71.057
-70.066
-69.698
-70.179
-71.46
-73.368
-75.743
-78.208
-80.384
-81.965
-82.574
-81.971
-80.468
-78.59
-76.647
-75.157
-74.719
-76.01
-79.958
-87.5
-98.893
-113.864
-132.734
-154.604
-176.573
-195.834
-209.125
-215.073
-216.943
-216.485
-210.546
-192.27
-150.165
-74.965
33.473
169.846
325.425
488.054
645.982
786.221
892.093
950.343
955.888
910.56
824.708
714.228
592.211
471.403
365.332
281.473
223.546
190.263
171.404
156.547
140.328
120.801
101.397
86.986
77.46
70.432
62.965
52.079
37.635
21.076
3.549
-13.724
-29.64
-43.363
-54.043
-61.251
-65.215
-66.439
-65.511
-63.029
-59.544
-55.643
-51.943
-48.877
-46.667
-45.391
-45.011
-45.473
-46.736
-48.719
-51.307
-54.394
-57.864
-61.613
-65.548
-69.558
-73.522
-77.321
-80.827
-83.923
-86.503
-88.496
-89.869
-90.618
-90.762
-90.332
-89.369
-87.929
-86.082
-83.896
-81.434
-78.759
-75.922
-72.981
-69.998
-67.03
-64.133
-61.347
-58.697
-56.196
-53.854
-51.673
-49.652
-47.78
-46.044
-44.428
-42.925
-41.525
-40.223
-39.009
-37.87
-36.795
-35.769
-34.78
-33.82
-32.875
-31.934
-30.987
-30.023
-29.032
-28.006
-26.937
-25.811
-24.62
-23.352
-21.997
-20.548
-18.996
-17.334
-15.556
-13.659
-11.641
-9.501
-7.241
-4.863
-2.37
0.234
2.942
5.748
8.643
11.62
14.668
17.778
20.939
24.139
27.366
30.606
33.846
37.072
40.27
43.425
46.522
49.546
52.484
55.319
58.037
60.626
63.071
65.36
67.48
69.42
71.171
72.722
74.067
75.198
76.111
76.801
77.266
77.504
77.514
77.297
76.855
76.19
75.306
74.206
72.897
71.385
69.677
67.782
65.708
63.465
61.064
58.516
55.834
53.028
50.114
47.102
44.009
40.847
37.631
34.376
31.094
27.802
24.513
21.24
17.997
14.797
11.651
8.572
5.569
2.653
-0.167
-2.882
-5.484
-7.966
-10.322
-12.544
-14.63
-16.573
-18.372
-20.023
-21.525
-22.877
-24.078
-25.129
-26.031
-26.786
-27.397
-27.867
-28.199
-28.399
-28.472
-28.422
-28.257
-27.983
-27.607
-27.135
-26.575
-25.935
-25.221
-24.441
-23.603
-22.712
-21.778
-20.806
-19.804
-18.777
-17.734
-16.68
-15.62
-14.562
-13.51
-12.469
-11.444
-10.439
-9.459
-8.506
-7.586
-6.7
-5.852
-5.043
-4.276
-3.553
-2.874
-2.24
-1.652
-1.109
-0.611
-0.157
0.252
0.619
0.944
1.229
1.476
1.685
1.859
2
2.11
2.191
2.245
2.274
2.279
2.264
2.23
2.178
2.11
2.028
1.933
1.826
1.71
1.584
1.45
1.309
1.161
1.006
0.845
0.677
0.502
0.319
0.128
-0.073
-0.285
-0.509
-0.746
-0.998
-1.267
-1.554
-1.861
-2.19
-2.544
-2.923
-3.33
-3.767
-4.234
-4.734
-5.267
-5.833
-6.435
-7.072
-7.744
-8.452
-9.196
-9.973
-10.785
-11.629
-12.503
-13.406
-14.335
-15.288
-16.26
-17.25
-18.253
-19.265
-20.283
-21.301
-22.316
-23.322
-24.315
-25.29
-26.241
-27.163
-28.053
-28.904
-29.712
-30.474
-31.185
-31.842
-32.441
-32.98
-33.455
-33.866
-34.209
-34.485
-34.692
-34.829
-34.899
-34.901
-34.838
-34.711
-34.524
-34.279
-33.981
-33.633
-33.24
-32.806
-32.337
-31.838
-31.314
-30.772
-30.217
-29.657
-29.095
-28.539
-27.994
-27.465
-26.957
-26.474
-26.019
-25.597
-25.209
-24.858
-24.547
-24.276
-24.046
-23.858
-23.711
-23.603
-23.532
-23.496
-23.49
-23.509
-23.548
-23.603
-23.667
-23.733
-23.794
-23.844
-23.875
-23.879
-23.849
-23.776
-23.651
-23.466
-23.214
-22.887
-22.478
-21.98
-21.388
-20.698
-19.905
-19.005
-17.996
-16.876
-15.641
-14.291
-12.825
-11.243
-9.545
-7.735
-5.814
-3.789
-1.666
0.548
2.844
5.211
7.636
10.108
12.615
15.144
17.683
20.218
22.735
25.219
27.657
30.032
32.329
34.526
36.603
38.544
40.336
41.974
43.449
44.747
45.852
46.753
47.432
47.874
48.057
47.942
47.497
46.699
45.537
44.023
42.168
39.979
37.455
34.595
31.413
27.948
24.236
20.307
16.201
11.973
7.718
3.581
-0.307
-3.833
-6.922
-9.545
-11.671
-13.245
-14.215
-14.533
-14.189
-13.239
-11.727
-9.659
-7.109
-4.221
-1.281
1.251
2.936
3.451
2.571
0.19
-3.636
-8.785
-14.958
-21.541
-27.798
-32.958
-36.505
-38.317
-38.595
-37.689
-36.055
-34.505
-34.347
-37.217
-44.345
-56.423
-73.652
-95.743
-122.179
-150.727
-176.985
-196.36
-205.358
-203.946
-194.535
-176.576
-145.654
-93.674
-12.832
97.18
230.066
375.615
523.112
664.588
792.419
897.068
965.709
986.534
953.089
865.906
739.848
596.863
459.773
352.43
281.812
242.295
224.571
210.616
193.386
175.826
157.651
144.077
134.451
121.395
105.276
85.686
63.754
44.478
26.789
9.594
-6.512
-22.202
-35.572
-44.999
-50.817
-53.267
-53.094
-51.18
-47.955
-43.968
-39.944
-36.364
-33.505
-31.534
-30.478
-30.353
-31.184
-32.925
-35.463
-38.681
-42.473
-46.727
-51.337
-56.179
-61.107
-65.98
-70.659
-75.015
-78.93
-82.293
-85.032
-87.11
-88.521
-89.284
-89.433
-89.013
-88.083
-86.713
-84.974
-82.934
-80.656
-78.197
-75.62
-72.985
-70.351
-67.771
-65.284
-62.916
-60.683
-58.593
-56.65
-54.852
-53.193
-51.657
-50.236
-48.92
-47.702
-46.578
-45.537
-44.569
-43.662
-42.804
-41.985
-41.194
-40.421
-39.655
-38.886
-38.103
-37.297
-36.46
-35.582
-34.651
-33.656
-32.586
-31.43
-30.179
-28.823
-27.353
-25.762
-24.043
-22.193
-20.209
-18.088
-15.83
-13.436
-10.908
-8.25
-5.467
-2.565
0.448
3.563
6.771
10.059
13.416
16.828
20.282
23.762
27.253
30.737
34.199
37.621
40.987
44.279
47.481
50.575
53.545
56.375
59.05
61.553
63.872
65.991
67.899
69.582
71.032
72.239
73.193
73.89
74.324
74.49
74.387
74.015
73.372
72.462
71.288
69.854
68.168
66.237
64.069
61.676
59.068
56.258
53.259
50.085
46.75
43.269
39.658
35.931
32.105
28.196
24.221
20.195
16.136
12.06
7.983
3.921
-0.11
-4.096
-8.021
-11.872
-15.638
-19.304
-22.861
-26.298
-29.605
-32.776
-35.802
-38.678
-41.4
-43.964
-46.367
-48.608
-50.688
-52.606
-54.363
-55.963
-57.406
-58.697
-59.838
-60.835
-61.691
-62.412
-63.003
-63.472
-63.824
-64.066
-64.206
-64.251
-64.208
-64.086
-63.891
-63.632
-63.317
-62.952
-62.546
-62.105
-61.636
-61.146
-60.64
-60.124
-59.602
-59.079
-58.559
-58.045
-57.539
-57.046
-56.566
-56.102
-55.656
-55.23
-54.825
-54.444
-54.085
-53.752
-53.443
-53.16
-52.901
-52.668
-52.459
-52.274
-52.113
-51.973
-51.855
-51.756
-51.676
-51.613
-51.565
-51.532
-51.511
-51.503
-51.505
-51.519
-51.543
-51.578
-51.623
-51.68
-51.749
-51.831
-51.926
-52.035
-52.158
-52.296
-52.45
-52.621
-52.809
-53.015
-53.24
-53.485
-53.75
-54.037
-54.345
-54.676
-55.03
-55.408
-55.81
-56.238
-56.692
-57.173
-57.681
-58.216
-58.777
-59.365
-59.978
-60.614
-61.273
-61.951
-62.647
-63.357
-64.079
-64.81
-65.546
-66.285
-67.022
-67.755
-68.478
-69.189
-69.884
-70.558
-71.209
-71.832
-72.424
-72.981
-73.5
-73.978
-74.411
-74.797
-75.131
-75.412
-75.635
-75.799
-75.902
-75.941
-75.914
-75.823
-75.665
-75.441
-75.151
-74.798
-74.382
-73.905
-73.37
-72.779
-72.137
-71.445
-70.709
-69.932
-69.12
-68.276
-67.407
-66.516
-65.608
-64.689
-63.764
-62.837
-61.914
-60.998
-60.096
-59.212
-58.351
-57.516
-56.714
-55.948
-55.222
-54.539
-53.902
-53.314
-52.776
-52.291
-51.858
-51.479
-51.152
-50.878
-50.655
-50.481
-50.352
-50.266
-50.219
-50.206
-50.221
-50.261
-50.318
-50.387
-50.461
-50.535
-50.6
-50.651
-50.68
-50.679
-50.642
-50.561
-50.429
-50.239
-49.983
-49.653
-49.245
-48.749
-48.161
-47.475
-46.684
-45.784
-44.771
-43.641
-42.391
-41.019
-39.523
-37.903
-36.16
-34.294
-32.308
-30.205
-27.989
-25.665
-23.239
-20.717
-18.105
-15.412
-12.647
-9.82
-6.944
-4.03
-1.09
1.86
4.806
7.732
10.623
13.466
16.245
18.941
21.536
24.009
26.34
28.512
30.506
32.302
33.884
35.237
36.352
37.23
37.868
38.255
38.379
38.218
37.758
36.997
35.932
34.557
32.873
30.883
28.596
26.04
23.236
20.194
16.914
13.38
9.595
5.595
1.436
-2.803
-7.045
-11.235
-15.31
-19.204
-22.855
-26.202
-29.204
-31.851
-34.123
-36.015
-37.469
-38.389
-38.778
-38.727
-38.458
-38.326
-38.605
-39.474
-41.167
-43.862
-47.579
-52.241
-57.365
-62.172
-66.047
-68.378
-68.656
-66.745
-62.621
-56.444
-49.143
-41.897
-35.81
-32.599
-33.846
-40.489
-53.7
-73.073
-95.522
-118.395
-138.967
-155.984
-172.672
-190.106
-204.362
-207.391
-185.264
-126.342
-29.179
100.773
252
410.48
566.764
711.124
831.256
914.323
947.806
925.855
852.087
741.505
614.724
491.562
389.928
315.045
263.287
227.783
196.46
164.531
133.458
105.404
85.694
75.434
71.175
69.497
66.256
58.992
47.845
33.535
17.087
-0.298
-17.587
-33.805
-47.964
-59.277
-67.535
-72.929
-75.797
-76.677
-76.092
-74.488
-72.337
-70.039
-67.8
-65.706
-63.796
-62.057
-60.468
-59.017
-57.649
-56.295
-54.915
-53.508
-52.085
-50.669
-49.297
-47.989
-46.791
-45.782
-45.008
-44.497
-44.26
-44.267
-44.518
-45.024
-45.782
-46.788
-48.032
-49.473
-51.071
-52.78
-54.51
-56.183
-57.714
-58.998
-59.967
-60.572
-60.774
-60.566
-59.944
-58.9
-57.446
-55.606
-53.398
-50.865
-48.052
-45.009
-41.816
-38.541
-35.243
-31.985
-28.81
-25.746
-22.82
-20.043
-17.408
-14.917
-12.559
-10.318
-8.185
-6.142
-4.163
-2.225
-0.292
1.665
3.665
5.727
7.863
10.081
12.388
14.783
17.26
19.812
22.436
25.125
27.876
30.685
33.542
36.439
39.368
42.32
45.288
48.265
51.243
54.217
57.178
60.122
63.043
65.933
68.786
71.591
74.339
77.02
79.624
82.142
84.562
86.874
89.069
91.138
93.072
94.864
96.507
97.991
99.312
100.462
101.438
102.233
102.843
103.266
103.498
103.537
103.382
103.033
102.489
101.753
100.825
99.708
98.407
96.926
95.269
93.443
91.455
89.311
87.02
84.591
82.032
79.354
76.567
73.68
70.706
67.654
64.534
61.359
58.138
54.882
51.602
48.308
45.011
41.721
38.447
35.199
31.988
28.82
25.705
22.649
19.66
16.743
13.905
11.149
8.481
5.904
3.42
1.033
-1.256
-3.446
-5.535
-7.525
-9.414
-11.204
-12.896
-14.492
-15.992
-17.399
-18.715
-19.941
-21.081
-22.135
-23.108
-24.002
-24.82
-25.565
-26.241
-26.85
-27.397
-27.884
-28.314
-28.689
-29.014
-29.289
-29.519
-29.704
-29.847
-29.951
-30.017
-30.046
-30.042
-30.004
-29.935
-29.836
-29.708
-29.551
-29.369
-29.161
-28.93
-28.677
-28.404
-28.114
-27.808
-27.49
-27.16
-26.821
-26.476
-26.127
-25.775
-25.423
-25.073
-24.729
-24.391
-24.063
-23.748
-23.446
-23.162
-22.896
-22.652
-22.43
-22.235
-22.066
-21.928
-21.821
-21.748
-21.71
-21.711
-21.751
-21.832
-21.956
-22.124
-22.335
-22.591
-22.892
-23.238
-23.627
-24.061
-24.538
-25.058
-25.619
-26.22
-26.86
-27.537
-28.25
-28.996
-29.772
-30.578
-31.41
-32.266
-33.143
-34.04
-34.954
-35.882
-36.822
-37.771
-38.725
-39.682
-40.639
-41.591
-42.536
-43.47
-44.39
-45.293
-46.176
-47.035
-47.869
-48.673
-49.447
-50.186
-50.889
-51.553
-52.177
-52.757
-53.294
-53.785
-54.23
-54.628
-54.979
-55.284
-55.542
-55.754
-55.92
-56.041
-56.118
-56.151
-56.144
-56.096
-56.011
-55.89
-55.737
-55.554
-55.344
-55.112
-54.859
-54.589
-54.306
-54.012
-53.711
-53.407
-53.103
-52.802
-52.509
-52.226
-51.957
-51.704
-51.469
-51.255
-51.062
-50.892
-50.744
-50.618
-50.514
-50.431
-50.368
-50.322
-50.292
-50.275
-50.268
-50.268
-50.269
-50.269
-50.261
-50.24
-50.201
-50.138
-50.045
-49.918
-49.75
-49.536
-49.27
-48.947
-48.559
-48.102
-47.569
-46.954
-46.251
-45.457
-44.566
-43.576
-42.483
-41.287
-39.985
-38.578
-37.066
-35.449
-33.73
-31.911
-29.996
-27.988
-25.894
-23.719
-21.469
-19.154
-16.781
-14.362
-11.909
-9.432
-6.945
-4.46
-1.993
0.443
2.833
5.162
7.416
9.582
11.642
13.579
15.373
17.008
18.469
19.74
20.805
21.653
22.272
22.661
22.821
22.747
22.431
21.858
21.01
19.871
18.436
16.695
14.644
12.283
9.613
6.649
3.417
-0.063
-3.779
-7.733
-11.927
-16.337
-20.914
-25.595
-30.294
-34.921
-39.401
-43.637
-47.55
-51.092
-54.205
-56.854
-59.035
-60.73
-61.923
-62.634
-62.843
-62.519
-61.76
-60.737
-59.749
-59.235
-59.47
-60.548
-62.601
-65.783
-70.1
-75.422
-81.148
-86.18
-89.836
-91.906
-92.303
-91.067
-88.296
-84.256
-80.064
-77.7
-78.835
-84.64
-95.814
-112.483
-133.612
-156.666
-178.413
-195.666
-208.069
-217.059
-221.572
-216.076
-189.859
-133.126
-43.36
72.58
201.271
331.666
457.312
575.853
683.986
772.163
829.191
844.095
813.811
743.647
641.164
520.701
394.91
276.285
180.988
114.558
77.276
63.616
58.748
54.928
49.506
41.906
37.127
35.982
35.412
33.39
27.289
16.434
2.533
-12.781
-27.969
-41.459
-52.074
-59.272
-62.962
-63.44
-61.377
-57.461
-52.296
-46.611
-41.119
-36.262
-32.32
-29.389
-27.403
-26.313
-26.078
-26.605
-27.783
-29.513
-31.689
-34.218
-37.028
-40.015
-43.065
-46.057
-48.867
-51.38
-53.492
-55.135
-56.268
-56.876
-56.965
-56.554
-55.673
-54.366
-52.693
-50.71
-48.471
-46.032
-43.438
-40.743
-38.004
-35.272
-32.599
-30.018
-27.55
-25.209
-23.001
-20.929
-18.991
-17.178
-15.478
-13.88
-12.378
-10.964
-9.637
-8.389
-7.213
-6.099
-5.04
-4.027
-3.056
-2.12
-1.211
-0.323
0.55
1.414
2.272
3.133
4.004
4.893
5.809
6.759
7.752
8.795
9.893
11.054
12.281
13.578
14.947
16.39
17.907
19.499
21.166
22.907
24.72
26.602
28.552
30.565
32.638
34.765
36.942
39.161
41.415
43.697
45.998
48.307
50.614
52.908
55.178
57.411
59.596
61.718
63.766
65.726
67.587
69.335
70.96
72.449
73.793
74.981
76.004
76.855
77.525
78.008
78.298
78.389
78.278
77.96
77.433
76.696
75.747
74.586
73.215
71.637
69.854
67.871
65.694
63.331
60.789
58.077
55.206
52.187
49.032
45.753
42.364
38.879
35.311
31.674
27.984
24.253
20.497
16.728
12.96
9.207
5.48
1.793
-1.843
-5.417
-8.918
-12.337
-15.663
-18.888
-22.003
-25.003
-27.88
-30.628
-33.243
-35.722
-38.06
-40.257
-42.31
-44.22
-45.987
-47.612
-49.098
-50.447
-51.663
-52.748
-53.707
-54.545
-55.264
-55.871
-56.369
-56.762
-57.056
-57.255
-57.363
-57.385
-57.324
-57.186
-56.974
-56.693
-56.345
-55.936
-55.468
-54.946
-54.373
-53.752
-53.087
-52.381
-51.637
-50.859
-50.048
-49.208
-48.342
-47.451
-46.539
-45.609
-44.661
-43.7
-42.727
-41.746
-40.76
-39.771
-38.784
-37.802
-36.828
-35.867
-34.921
-33.996
-33.094
-32.22
-31.378
-30.57
-29.802
-29.075
-28.393
-27.76
-27.177
-26.647
-26.173
-25.755
-25.395
-25.094
-24.853
-24.671
-24.549
-24.488
-24.485
-24.54
-24.653
-24.821
-25.042
-25.315
-25.636
-26.002
-26.41
-26.856
-27.336
-27.847
-28.383
-28.942
-29.518
-30.107
-30.705
-31.308
-31.912
-32.512
-33.105
-33.687
-34.255
-34.805
-35.336
-35.846
-36.331
-36.79
-37.223
-37.627
-38.002
-38.348
-38.663
-38.947
-39.201
-39.425
-39.619
-39.783
-39.921
-40.031
-40.117
-40.179
-40.22
-40.241
-40.245
-40.233
-40.207
-40.171
-40.126
-40.075
-40.02
-39.964
-39.909
-39.857
-39.811
-39.772
-39.742
-39.723
-39.716
-39.723
-39.745
-39.784
-39.841
-39.917
-40.013
-40.131
-40.271
-40.435
-40.622
-40.833
-41.07
-41.332
-41.618
-41.93
-42.267
-42.629
-43.014
-43.422
-43.852
-44.302
-44.769
-45.252
-45.746
-46.25
-46.759
-47.27
-47.779
-48.282
-48.774
-49.25
-49.707
-50.139
-50.541
-50.907
-51.231
-51.508
-51.732
-51.897
-51.996
-52.026
-51.979
-51.851
-51.635
-51.326
-50.918
-50.407
-49.788
-49.056
-48.208
-47.24
-46.15
-44.937
-43.601
-42.142
-40.561
-38.861
-37.045
-35.116
-33.078
-30.939
-28.702
-26.377
-23.969
-21.487
-18.942
-16.344
-13.705
-11.039
-8.359
-5.68
-3.016
-0.384
2.202
4.723
7.165
9.512
11.746
13.85
15.804
17.591
19.195
20.603
21.799
22.771
23.508
24.001
24.253
24.262
24.021
23.522
22.752
21.695
20.345
18.698
16.744
14.479
11.898
8.997
5.792
2.306
-1.445
-5.451
-9.712
-14.219
-18.932
-23.787
-28.71
-33.612
-38.413
-43.038
-47.381
-51.342
-54.833
-57.775
-60.134
-61.911
-63.102
-63.697
-63.699
-63.117
-62.003
-60.476
-58.682
-56.783
-54.951
-53.356
-52.174
-51.625
-51.995
-53.482
-56.139
-59.854
-64.315
-69.179
-74.185
-78.948
-82.85
-85.406
-86.432
-86.134
-85.311
-85.065
-86.338
-90.075
-97.583
-108.814
-121.785
-134.266
-142.85
-145.881
-146.347
-145.511
-141.909
-131.043
-100.262
-38.024
60.686
196.577
358.299
527.314
683.912
806.665
881.943
904.749
878.731
813.776
718.813
605.702
484.491
366.586
268.39
196.886
153.213
131.625
116.891
101.095
82.465
62.739
49.147
43.806
44.062
46.704
47.274
43.991
37.584
28.737
18.597
8.179
-1.912
-10.498
-17.504
-23.512
-27.509
-29.468
-27.766
-20.33
-10.546
-0.941
5.049
3.205
-3.054
-10.719
-17.596
-20.21
-20.86
-21.822
-23.483
-27.185
-31.954
-36.601
-41.237
-45.605
-49.649
-53.461
-56.803
-59.512
-61.597
-63.06
-63.906
-64.16
-63.878
-63.125
-61.976
-60.511
-58.77
-56.788
-54.622
-52.333
-49.977
-47.619
-45.3
-43.046
-40.883
-38.825
-36.877
-35.043
-33.317
-31.686
-30.141
-28.677
-27.29
-25.974
-24.727
-23.537
-22.397
-21.297
-20.228
-19.183
-18.155
-17.136
-16.119
-15.1
-14.071
-13.028
-11.966
-10.876
-9.75
-8.579
-7.355
-6.069
-4.713
-3.279
-1.76
-0.151
1.555
3.361
5.27
7.284
9.404
11.63
13.961
16.394
18.926
21.552
24.268
27.066
29.941
32.883
35.886
38.938
42.032
45.156
48.299
51.45
54.597
57.729
60.832
63.895
66.904
69.848
72.714
75.489
78.16
80.715
83.143
85.431
87.569
89.546
91.354
92.983
94.426
95.676
96.729
97.578
98.22
98.653
98.875
98.885
98.683
98.27
97.648
96.821
95.793
94.567
93.15
91.549
89.77
87.822
85.712
83.451
81.047
78.512
75.856
73.09
70.227
67.279
64.258
61.177
58.048
54.886
51.701
48.508
45.318
42.142
38.994
35.882
32.819
29.814
26.876
24.014
21.237
18.552
15.965
13.483
11.111
8.854
6.715
4.698
2.805
1.038
-0.602
-2.114
-3.498
-4.756
-5.888
-6.896
-7.784
-8.554
-9.211
-9.758
-10.2
-10.542
-10.791
-10.951
-11.028
-11.028
-10.958
-10.825
-10.633
-10.39
-10.102
-9.776
-9.417
-9.031
-8.625
-8.204
-7.772
-7.335
-6.899
-6.467
-6.044
-5.633
-5.24
-4.867
-4.518
-4.196
-3.903
-3.642
-3.415
-3.224
-3.07
-2.954
-2.877
-2.84
-2.842
-2.885
-2.967
-3.089
-3.249
-3.447
-3.68
-3.949
-4.251
-4.585
-4.95
-5.343
-5.763
-6.208
-6.677
-7.167
-7.678
-8.207
-8.752
-9.312
-9.885
-10.469
-11.063
-11.665
-12.273
-12.886
-13.504
-14.123
-14.744
-15.364
-15.983
-16.6
-17.213
-17.822
-18.426
-19.024
-19.617
-20.204
-20.785
-21.36
-21.928
-22.491
-23.047
-23.597
-24.141
-24.68
-25.212
-25.74
-26.261
-26.778
-27.289
-27.796
-28.298
-28.795
-29.287
-29.775
-30.258
-30.736
-31.209
-31.678
-32.142
-32.602
-33.057
-33.509
-33.956
-34.4
-34.839
-35.276
-35.708
-36.137
-36.562
-36.984
-37.403
-37.82
-38.235
-38.648
-39.061
-39.473
-39.886
-40.3
-40.717
-41.137
-41.561
-41.991
-42.427
-42.871
-43.324
-43.787
-44.262
-44.75
-45.251
-45.768
-46.3
-46.849
-47.416
-48.001
-48.604
-49.227
-49.869
-50.53
-51.21
-51.909
-52.626
-53.358
-54.106
-54.866
-55.636
-56.413
-57.194
-57.976
-58.754
-59.525
-60.283
-61.024
-61.743
-62.435
-63.093
-63.712
-64.285
-64.807
-65.272
-65.674
-66.006
-66.264
-66.44
-66.529
-66.525
-66.423
-66.217
-65.901
-65.471
-64.923
-64.251
-63.453
-62.527
-61.471
-60.283
-58.962
-57.51
-55.928
-54.218
-52.383
-50.428
-48.358
-46.18
-43.899
-41.524
-39.062
-36.524
-33.92
-31.263
-28.563
-25.834
-23.09
-20.346
-17.619
-14.926
-12.281
-9.701
-7.201
-4.802
-2.525
-0.389
1.586
3.385
4.991
6.383
7.546
8.467
9.141
9.573
9.758
9.685
9.339
8.707
7.782
6.57
5.07
3.277
1.188
-1.196
-3.859
-6.775
-9.925
-13.309
-16.933
-20.807
-24.913
-29.197
-33.587
-38.014
-42.411
-46.725
-50.889
-54.827
-58.471
-61.755
-64.644
-67.117
-69.129
-70.652
-71.631
-71.975
-71.713
-71.001
-70.072
-69.312
-69.07
-69.464
-70.644
-72.808
-75.873
-79.665
-83.757
-87.124
-88.878
-88.684
-86.309
-81.765
-75.558
-68.063
-60.114
-53.7
-50.735
-52.565
-60.294
-74.154
-93.513
-117.754
-145.303
-172.746
-196.205
-211.685
-214.878
-202.322
-171.415
-119.456
-46.461
43.363
144.995
252.431
362.607
478.928
602.835
730.988
851.591
940.375
973.963
937.832
831.838
678.429
510.145
359.089
250.699
188.685
162.006
155.053
148.845
137.348
124.421
112.022
105.508
103.343
97.978
88.924
75.156
57.783
41.663
25.923
9.84
-5.734
-21.283
-34.902
-44.953
-51.733
-55.454
-56.754
-56.471
-55.03
-52.927
-50.78
-48.952
-47.578
-46.723
-46.395
-46.58
-47.267
-48.385
-49.807
-51.456
-53.317
-55.367
-57.577
-59.877
-62.162
-64.346
-66.376
-68.205
-69.789
-71.067
-71.971
-72.486
-72.651
-72.535
-72.194
-71.645
-70.87
-69.868
-68.673
-67.327
-65.88
-64.358
-62.773
-61.147
-59.512
-57.914
-56.389
-54.944
-53.547
-52.158
-50.759
-49.364
-48.013
-46.73
-45.518
-44.374
-43.298
-42.301
-41.396
-40.58
-39.831
-39.125
-38.446
-37.794
-37.178
-36.61
-36.085
-35.584
-35.079
-34.546
-33.969
-33.333
-32.618
-31.801
-30.862
-29.79
-28.586
-27.25
-25.777
-24.159
-22.388
-20.456
-18.364
-16.112
-13.704
-11.145
-8.438
-5.592
-2.617
0.475
3.673
6.967
10.348
13.806
17.328
20.9
24.507
28.136
31.769
35.391
38.984
42.529
46.008
49.404
52.701
55.881
58.927
61.823
64.553
67.103
69.458
71.604
73.529
75.223
76.674
77.874
78.816
79.494
79.903
80.04
79.903
79.492
78.809
77.855
76.634
75.151
73.413
71.427
69.203
66.749
64.078
61.201
58.133
54.888
51.481
47.927
44.243
40.447
36.555
32.585
28.554
24.481
20.383
16.278
12.183
8.115
4.09
0.124
-3.769
-7.575
-11.28
-14.872
-18.341
-21.676
-24.868
-27.911
-30.796
-33.519
-36.075
-38.461
-40.675
-42.716
-44.584
-46.28
-47.806
-49.166
-50.363
-51.402
-52.29
-53.032
-53.636
-54.109
-54.46
-54.697
-54.829
-54.865
-54.815
-54.688
-54.493
-54.239
-53.936
-53.592
-53.215
-52.813
-52.394
-51.965
-51.532
-51.1
-50.676
-50.264
-49.869
-49.494
-49.144
-48.819
-48.524
-48.259
-48.025
-47.823
-47.653
-47.514
-47.406
-47.326
-47.274
-47.247
-47.241
-47.256
-47.287
-47.332
-47.388
-47.45
-47.515
-47.581
-47.645
-47.702
-47.751
-47.788
-47.813
-47.822
-47.814
-47.787
-47.741
-47.674
-47.585
-47.473
-47.338
-47.179
-46.996
-46.789
-46.559
-46.306
-46.031
-45.736
-45.421
-45.089
-44.741
-44.378
-44.004
-43.62
-43.228
-42.831
-42.432
-42.032
-41.633
-41.239
-40.851
-40.47
-40.098
-39.737
-39.387
-39.049
-38.724
-38.411
-38.111
-37.825
-37.551
-37.289
-37.04
-36.803
-36.578
-36.364
-36.16
-35.965
-35.778
-35.597
-35.421
-35.247
-35.075
-34.902
-34.727
-34.547
-34.362
-34.168
-33.966
-33.753
-33.529
-33.293
-33.044
-32.782
-32.506
-32.216
-31.913
-31.598
-31.272
-30.935
-30.59
-30.239
-29.882
-29.524
-29.164
-28.806
-28.451
-28.102
-27.76
-27.428
-27.11
-26.807
-26.523
-26.26
-26.022
-25.811
-25.629
-25.478
-25.36
-25.275
-25.222
-25.2
-25.208
-25.244
-25.305
-25.389
-25.494
-25.616
-25.753
-25.904
-26.065
-26.231
-26.399
-26.56
-26.707
-26.832
-26.924
-26.975
-26.975
-26.915
-26.786
-26.583
-26.301
-25.932
-25.468
-24.898
-24.208
-23.387
-22.432
-21.335
-20.099
-18.731
-17.24
-15.65
-13.987
-12.264
-10.493
-8.674
-6.795
-4.85
-2.828
-0.72
1.474
3.752
6.12
8.572
11.103
13.727
16.462
19.352
22.45
25.779
29.344
33.134
37.105
41.212
45.393
49.562
53.649
57.589
61.325
64.822
68.048
70.952
73.472
75.521
76.994
77.825
77.965
77.376
76.053
74.002
71.264
67.935
64.103
59.839
55.199
50.214
44.915
39.359
33.605
27.731
21.839
16.011
10.347
4.955
-0.077
-4.649
-8.701
-12.236
-15.249
-17.718
-19.629
-20.921
-21.526
-21.482
-20.873
-19.843
-18.635
-17.43
-16.366
-15.702
-15.779
-16.725
-18.455
-20.618
-22.597
-24.043
-24.913
-24.967
-23.774
-21.196
-17.397
-13.03
-9.259
-6.78
-5.813
-6.961
-11.215
-19.337
-31.772
-48.388
-68.342
-91.054
-116.21
-141.438
-162.469
-175.71
-177.318
-166.867
-147.913
-119.545
-80.19
-26.526
50.331
151.567
275.112
419.596
573.408
724.652
860.817
959.533
1003.871
985.723
901.788
766.904
607.024
444.892
306.083
207.773
150.641
132.646
142.924
163.59
184.18
194.273
187.72
168.601
141.448
113.268
90.747
74.307
61.862
49.416
34.027
16.041
-2.486
-18.59
-30.774
-39.142
-44.213
-46.867
-47.704
-47.065
-45.539
-43.738
-42.03
-40.657
-39.752
-39.377
-39.625
-40.546
-42.106
-44.217
-46.807
-49.821
-53.202
-56.882
-60.768
-64.747
-68.711
-72.571
-76.231
-79.598
-82.583
-85.092
-87.062
-88.473
-89.321
-89.627
-89.425
-88.751
-87.657
-86.207
-84.461
-82.478
-80.311
-78.005
-75.607
-73.167
-70.733
-68.354
-66.064
-63.885
-61.833
-59.917
-58.138
-56.497
-54.989
-53.599
-52.32
-51.144
-50.064
-49.078
-48.178
-47.356
-46.601
-45.903
-45.253
-44.642
-44.06
-43.497
-42.944
-42.392
-41.833
-41.26
-40.663
-40.034
-39.361
-38.635
-37.846
-36.985
-36.043
-35.012
-33.886
-32.658
-31.326
-29.885
-28.335
-26.673
-24.901
-23.018
-21.029
-18.934
-16.738
-14.447
-12.066
-9.602
-7.062
-4.456
-1.793
0.917
3.663
6.433
9.214
11.995
14.762
17.501
20.2
22.844
25.418
27.909
30.303
32.586
34.745
36.767
38.639
40.35
41.89
43.25
44.419
45.392
46.16
46.718
47.062
47.187
47.092
46.774
46.235
45.475
44.496
43.303
41.901
40.294
38.491
36.499
34.328
31.988
29.49
26.845
24.066
21.167
18.162
15.065
11.891
8.656
5.374
2.062
-1.267
-4.596
-7.911
-11.199
-14.444
-17.633
-20.754
-23.795
-26.744
-29.591
-32.326
-34.941
-37.427
-39.779
-41.991
-44.059
-45.98
-47.75
-49.369
-50.837
-52.155
-53.323
-54.344
-55.222
-55.961
-56.565
-57.041
-57.394
-57.631
-57.758
-57.783
-57.713
-57.556
-57.319
-57.01
-56.636
-56.204
-55.723
-55.198
-54.637
-54.047
-53.433
-52.802
-52.158
-51.506
-50.851
-50.197
-49.546
-48.901
-48.265
-47.641
-47.028
-46.429
-45.845
-45.275
-44.721
-44.181
-43.656
-43.145
-42.648
-42.164
-41.692
-41.233
-40.785
-40.349
-39.925
-39.511
-39.109
-38.719
-38.341
-37.976
-37.623
-37.285
-36.962
-36.655
-36.366
-36.096
-35.847
-35.622
-35.422
-35.248
-35.104
-34.99
-34.91
-34.863
-34.853
-34.881
-34.948
-35.056
-35.205
-35.396
-35.63
-35.905
-36.222
-36.579
-36.976
-37.41
-37.88
-38.383
-38.918
-39.48
-40.067
-40.677
-41.305
-41.948
-42.602
-43.264
-43.93
-44.595
-45.257
-45.911
-46.554
-47.183
-47.794
-48.386
-48.956
-49.501
-50.02
-50.512
-50.975
-51.411
-51.818
-52.198
-52.553
-52.885
-53.197
-53.493
-53.776
-54.05
-54.321
-54.592
-54.87
-55.16
-55.467
-55.797
-56.156
-56.551
-56.986
-57.468
-58.003
-58.594
-59.248
-59.968
-60.759
-61.623
-62.563
-63.583
-64.682
-65.862
-67.123
-68.465
-69.885
-71.38
-72.945
-74.576
-76.267
-78.009
-79.794
-81.613
-83.456
-85.312
-87.171
-89.019
-90.846
-92.638
-94.382
-96.065
-97.673
-99.192
-100.608
-101.908
-103.079
-104.106
-104.98
-105.686
-106.215
-106.555
-106.696
-106.63
-106.348
-105.842
-105.106
-104.137
-102.931
-101.487
-99.805
-97.888
-95.739
-93.365
-90.772
-87.969
-84.966
-81.774
-78.405
-74.874
-71.196
-67.389
-63.469
-59.455
-55.368
-51.231
-47.07
-42.91
-38.78
-34.705
-30.717
-26.844
-23.114
-19.551
-16.178
-13.015
-10.081
-7.395
-4.976
-2.841
-1
0.536
1.762
2.677
3.283
3.593
3.621
3.379
2.876
2.109
1.071
-0.246
-1.845
-3.733
-5.906
-8.352
-11.053
-13.975
-17.088
-20.374
-23.808
-27.367
-31.019
-34.717
-38.404
-42.015
-45.446
-48.561
-51.276
-53.577
-55.543
-57.363
-59.208
-61.199
-63.493
-66.307
-69.701
-73.476
-77.162
-80.022
-81.41
-80.993
-78.469
-73.426
-65.714
-55.695
-44.23
-32.67
-22.378
-14.273
-9.322
-8.796
-13.671
-24.43
-40.997
-62.619
-88.413
-116.355
-142.69
-163.604
-175.05
-176.563
-172.014
-161.792
-144.586
-114.312
-57.985
29.531
148.119
293.296
450.113
606.197
749.731
865.751
942.858
970.679
943.174
862.964
744.129
607.474
475.41
370.162
299.277
258.998
239.963
225.143
205.875
182.079
156.307
136.107
124.449
118.542
114.871
108.872
98.494
84.65
68.599
51.711
35.036
19.33
5.543
-5.383
-13.027
-17.532
-19.319
-18.937
-16.937
-13.82
-10.147
-6.53
-3.37
-0.874
0.837
1.766
1.942
1.369
0.12
-1.698
-4.002
-6.699
-9.694
-12.919
-16.27
-19.639
-22.933
-26.046
-28.88
-31.35
-33.362
-34.857
-35.819
-36.245
-36.156
-35.586
-34.57
-33.16
-31.421
-29.41
-27.186
-24.798
-22.289
-19.707
-17.099
-14.51
-11.988
-9.562
-7.251
-5.066
-3.013
-1.09
0.705
2.381
3.955
5.439
6.843
8.175
9.442
10.651
11.815
12.943
14.047
15.137
16.219
17.303
18.397
19.508
20.641
21.804
22.999
24.231
25.506
26.831
28.21
29.65
31.154
32.724
34.366
36.08
37.868
39.727
41.658
43.656
45.719
47.843
50.023
52.252
54.524
56.832
59.168
61.524
63.891
66.259
68.62
70.962
73.277
75.554
77.784
79.955
82.059
84.084
86.022
87.862
89.595
91.211
92.702
94.058
95.272
96.337
97.243
97.985
98.557
98.953
99.168
99.199
99.042
98.695
98.156
97.425
96.5
95.384
94.078
92.584
90.906
89.047
87.012
84.808
82.439
79.912
77.236
74.417
71.465
68.387
65.195
61.896
58.503
55.027
51.477
47.866
44.206
40.509
36.787
33.054
29.321
25.602
21.909
18.254
14.651
11.112
7.647
4.269
0.988
-2.185
-5.241
-8.171
-10.967
-13.62
-16.125
-18.476
-20.666
-22.692
-24.551
-26.239
-27.755
-29.096
-30.264
-31.258
-32.079
-32.73
-33.212
-33.53
-33.688
-33.691
-33.543
-33.253
-32.825
-32.268
-31.59
-30.798
-29.902
-28.909
-27.83
-26.674
-25.449
-24.165
-22.831
-21.457
-20.052
-18.623
-17.18
-15.73
-14.281
-12.841
-11.415
-10.011
-8.634
-7.291
-5.985
-4.722
-3.505
-2.34
-1.227
-0.171
0.826
1.764
2.642
3.458
4.213
4.906
5.539
6.112
6.626
7.083
7.484
7.831
8.127
8.373
8.572
8.727
8.84
8.914
8.951
8.953
8.922
8.861
8.772
8.655
8.514
8.349
8.162
7.956
7.73
7.487
7.226
6.948
6.653
6.339
6.007
5.655
5.281
4.885
4.465
4.02
3.549
3.052
2.525
1.969
1.38
0.758
0.101
-0.594
-1.329
-2.104
-2.922
-3.783
-4.688
-5.638
-6.633
-7.676
-8.765
-9.903
-11.091
-12.328
-13.616
-14.953
-16.34
-17.773
-19.252
-20.771
-22.328
-23.917
-25.533
-27.171
-28.827
-30.495
-32.17
-33.849
-35.527
-37.2
-38.864
-40.51
-42.131
-43.718
-45.261
-46.752
-48.179
-49.532
-50.802
-51.981
-53.061
-54.038
-54.905
-55.652
-56.269
-56.74
-57.054
-57.206
-57.19
-57.006
-56.66
-56.162
-55.534
-54.802
-53.98
-53.075
-52.09
-51.01
-49.83
-48.538
-47.122
-45.581
-43.915
-42.116
-40.188
-38.129
-35.921
-33.539
-30.936
-28.057
-24.876
-21.385
-17.594
-13.547
-9.292
-4.893
-0.441
3.994
8.346
12.551
16.567
20.347
23.823
26.924
29.553
31.602
32.997
33.69
33.646
32.874
31.401
29.281
26.616
23.494
19.983
16.144
12.01
7.607
2.984
-1.809
-6.716
-11.662
-16.592
-21.46
-26.203
-30.775
-35.152
-39.334
-43.37
-47.317
-51.195
-54.99
-58.668
-62.16
-65.416
-68.416
-71.085
-73.335
-75.165
-76.634
-77.935
-79.413
-81.313
-83.769
-86.958
-90.945
-95.601
-100.729
-105.751
-109.785
-112.19
-112.372
-109.753
-104.23
-96.012
-85.487
-73.835
-62.707
-53.504
-47.837
-47.422
-53.265
-65.964
-86.016
-111.849
-139.825
-166.679
-188.663
-203.729
-214.16
-220.632
-219.967
-206.53
-170.155
-101.959
-1.449
126.948
275.251
431.127
583.012
718.944
823.049
882.13
890.194
847.117
762.126
651.986
530.805
411.99
308.018
223.085
160.136
120.204
97.381
87.803
86.834
86.64
84.019
75.578
59.785
41.298
23.084
8.095
-2.382
-12.078
-23.137
-36.376
-51.395
-65.188
-75.886
-83.158
-87.126
-88.607
-88.284
-86.458
-83.587
-80.275
-77.06
-74.308
-72.214
-70.845
-70.189
-70.239
-70.966
-72.277
-74.064
-76.246
-78.731
-81.437
-84.291
-87.19
-90.032
-92.72
-95.15
-97.222
-98.84
-99.943
-100.499
-100.507
-99.987
-98.969
-97.492
-95.606
-93.376
-90.867
-88.14
-85.249
-82.244
-79.176
-76.103
-73.076
-70.151
-67.364
-64.738
-62.289
-60.025
-57.948
-56.058
-54.347
-52.798
-51.399
-50.14
-49.013
-48.01
-47.123
-46.337
-45.64
-45.019
-44.461
-43.955
-43.489
-43.052
-42.631
-42.218
-41.801
-41.371
-40.92
-40.433
-39.901
-39.31
-38.651
-37.912
-37.086
-36.162
-35.135
-33.999
-32.751
-31.387
-29.908
-28.312
-26.603
-24.781
-22.853
-20.822
-18.695
-16.479
-14.183
-11.815
-9.387
-6.908
-4.389
-1.843
0.72
3.285
5.841
8.372
10.866
13.308
15.684
17.978
20.175
22.261
24.222
26.042
27.71
29.212
30.535
31.669
32.604
33.329
33.838
34.122
34.176
33.996
33.578
32.919
32.021
30.881
29.504
27.891
26.047
23.977
21.687
19.184
16.476
13.574
10.486
7.225
3.803
0.235
-3.466
-7.283
-11.2
-15.201
-19.267
-23.381
-27.524
-31.677
-35.823
-39.943
-44.017
-48.029
-51.959
-55.79
-59.507
-63.092
-66.532
-69.812
-72.919
-75.842
-78.571
-81.095
-83.408
-85.501
-87.368
-89.006
-90.41
-91.578
-92.511
-93.207
-93.67
-93.903
-93.91
-93.698
-93.274
-92.646
-91.824
-90.819
-89.64
-88.302
-86.815
-85.195
-83.455
-81.61
-79.675
-77.663
-75.591
-73.473
-71.324
-69.156
-66.984
-64.82
-62.678
-60.568
-58.501
-56.489
-54.541
-52.666
-50.872
-49.167
-47.556
-46.046
-44.64
-43.342
-42.155
-41.081
-40.12
-39.273
-38.539
-37.915
-37.401
-36.993
-36.688
-36.48
-36.365
-36.338
-36.393
-36.525
-36.727
-36.992
-37.317
-37.693
-38.116
-38.581
-39.082
-39.613
-40.171
-40.751
-41.349
-41.961
-42.583
-43.214
-43.85
-44.49
-45.132
-45.775
-46.418
-47.06
-47.701
-48.342
-48.983
-49.624
-50.268
-50.914
-51.566
-52.224
-52.892
-53.571
-54.263
-54.972
-55.699
-56.446
-57.214
-58.007
-58.824
-59.667
-60.536
-61.431
-62.353
-63.301
-64.272
-65.267
-66.282
-67.314
-68.362
-69.42
-70.486
-71.555
-72.621
-73.679
-74.725
-75.75
-76.75
-77.716
-78.641
-79.517
-80.338
-81.093
-81.775
-82.375
-82.884
-83.294
-83.595
-83.78
-83.839
-83.762
-83.543
-83.173
-82.644
-81.949
-81.082
-80.036
-78.806
-77.388
-75.776
-73.969
-71.962
-69.753
-67.342
-64.728
-61.911
-58.894
-55.679
-52.27
-48.674
-44.895
-40.941
-36.82
-32.54
-28.111
-23.545
-18.853
-14.048
-9.144
-4.158
0.894
5.991
11.116
16.246
21.362
26.44
31.457
36.388
41.209
45.898
50.43
54.783
58.934
62.86
66.541
69.96
73.102
75.952
78.496
80.72
82.612
84.172
85.397
86.29
86.853
87.078
86.965
86.517
85.733
84.618
83.174
81.401
79.312
76.931
74.291
71.441
68.42
65.257
61.978
58.593
55.132
51.651
48.198
44.833
41.617
38.577
35.775
33.3
31.135
29.185
27.278
25.098
22.402
19.071
14.93
9.887
4.069
-2.335
-8.846
-14.696
-19.291
-22.126
-22.691
-20.861
-16.831
-10.903
-3.911
2.947
8.524
11.484
10.639
5.212
-5.261
-20.885
-41.391
-64.689
-86.802
-104.196
-113.462
-114.92
-113.017
-107.63
-94.89
-66.09
-8.291
82.455
201.422
338.986
482.849
625.274
760.746
881.095
970.995
1012.554
994.541
914.402
787.063
638.26
490.563
365.744
274.733
214.783
181.166
163.008
148.076
133.088
117.093
102.079
93.136
89.818
88.852
87.231
81.562
71.187
57.639
42.319
26.618
11.855
-0.964
-10.934
-17.56
-21.001
-21.772
-20.523
-17.883
-14.455
-10.861
-7.704
-5.395
-4.09
-3.794
-4.415
-5.85
-8.032
-10.852
-14.17
-17.856
-21.785
-25.854
-29.98
-34.062
-37.982
-41.622
-44.865
-47.603
-49.776
-51.35
-52.311
-52.672
-52.456
-51.698
-50.453
-48.787
-46.765
-44.451
-41.904
-39.176
-36.326
-33.414
-30.498
-27.634
-24.858
-22.197
-19.666
-17.277
-15.033
-12.935
-10.978
-9.149
-7.437
-5.836
-4.339
-2.941
-1.634
-0.408
0.748
1.846
2.895
3.904
4.882
5.839
6.784
7.725
8.671
9.626
10.601
11.604
12.644
13.732
14.876
16.083
17.363
18.721
20.163
21.693
23.315
25.031
26.84
28.743
30.74
32.828
35.005
37.266
39.606
42.021
44.502
47.043
49.635
52.269
54.934
57.62
60.316
63.008
65.685
68.334
70.942
73.495
75.979
78.382
80.689
82.888
84.964
86.907
88.703
90.34
91.809
93.098
94.199
95.103
95.802
96.29
96.56
96.608
96.429
96.02
95.379
94.505
93.397
92.056
90.484
88.685
86.662
84.42
81.966
79.308
76.452
73.41
70.19
66.803
63.262
59.58
55.768
51.842
47.814
43.7
39.515
35.273
30.988
26.677
22.353
18.032
13.727
9.454
5.224
1.053
-3.047
-7.064
-10.986
-14.802
-18.501
-22.075
-25.514
-28.812
-31.961
-34.955
-37.79
-40.463
-42.969
-45.309
-47.48
-49.485
-51.323
-52.997
-54.511
-55.869
-57.076
-58.137
-59.058
-59.847
-60.51
-61.054
-61.488
-61.82
-62.058
-62.211
-62.288
-62.296
-62.246
-62.146
-62.004
-61.828
-61.627
-61.408
-61.178
-60.944
-60.713
-60.491
-60.284
-60.095
-59.93
-59.792
-59.685
-59.612
-59.573
-59.571
-59.607
-59.681
-59.793
-59.942
-60.129
-60.351
-60.608
-60.899
-61.22
-61.571
-61.95
-62.354
-62.78
-63.228
-63.694
-64.177
-64.674
-65.185
-65.706
-66.238
-66.778
-67.326
-67.881
-68.443
-69.012
-69.588
-70.172
-70.765
-71.368
-71.982
-72.609
-73.251
-73.91
-74.588
-75.286
-76.007
-76.753
-77.526
-78.328
-79.16
-80.024
-80.921
-81.854
-82.821
-83.825
-84.865
-85.942
-87.054
-88.202
-89.384
-90.598
-91.842
-93.114
-94.409
-95.725
-97.055
-98.396
-99.74
-101.083
-102.415
-103.731
-105.022
-106.281
-107.498
-108.665
-109.774
-110.817
-111.784
-112.667
-113.457
-114.147
-114.728
-115.191
-115.53
-115.737
-115.805
-115.729
-115.502
-115.119
-114.576
-113.868
-112.991
-111.944
-110.723
-109.328
-107.758
-106.014
-104.1
-102.018
-99.774
-97.374
-94.824
-92.134
-89.312
-86.368
-83.313
-80.158
-76.915
-73.598
-70.22
-66.797
-63.345
-59.88
-56.422
-52.989
-49.6
-46.275
-43.035
-39.901
-36.894
-34.036
-31.346
-28.841
-26.542
-24.464
-22.624
-21.035
-19.705
-18.644
-17.858
-17.357
-17.145
-17.22
-17.575
-18.199
-19.082
-20.218
-21.604
-23.239
-25.116
-27.227
-29.566
-32.133
-34.921
-37.914
-41.074
-44.351
-47.699
-51.083
-54.483
-57.894
-61.292
-64.63
-67.856
-70.902
-73.708
-76.246
-78.44
-80.192
-81.488
-82.381
-83.054
-83.845
-85.024
-86.764
-89.262
-92.595
-96.675
-101.324
-106.024
-109.944
-112.345
-112.527
-109.913
-104.395
-96.18
-85.67
-73.869
-62.231
-52.381
-46.172
-45.171
-50.28
-61.969
-80.307
-104.553
-132.129
-158.711
-180.02
-192.617
-196.506
-193.849
-183.187
-160.007
-116.952
-46.697
51.032
170.712
305.131
446.285
585.645
713.937
816.873
877.461
886.739
842.869
753.697
639.33
516.547
400.543
305.588
232.759
181.084
146.927
119.508
95.299
74.054
55.991
45.877
44.308
47.68
52.487
54.409
51.339
43.91
33.113
20.094
6.008
-8.069
-20.909
-31.321
-38.736
-43.244
-45.212
-45.174
-43.676
-41.228
-38.426
-35.868
-33.92
-32.738
-32.347
-32.65
-33.564
-35.03
-36.946
-39.198
-41.692
-44.334
-47.06
-49.815
-52.527
-55.124
-57.526
-59.652
-61.425
-62.774
-63.651
-64.041
-63.951
-63.398
-62.416
-61.038
-59.311
-57.298
-55.053
-52.629
-50.073
-47.425
-44.729
-42.034
-39.384
-36.826
-34.391
-32.098
-29.962
-27.988
-26.181
-24.538
-23.054
-21.714
-20.507
-19.424
-18.457
-17.6
-16.846
-16.183
-15.598
-15.08
-14.617
-14.199
-13.814
-13.453
-13.102
-12.752
-12.394
-12.019
-11.617
-11.178
-10.69
-10.143
-9.525
-8.829
-8.044
-7.161
-6.173
-5.075
-3.862
-2.531
-1.081
0.491
2.184
3.995
5.924
7.964
10.113
12.364
14.712
17.147
19.662
22.249
24.896
27.593
30.33
33.094
35.872
38.653
41.422
44.167
46.873
49.526
52.112
54.618
57.028
59.329
61.508
63.551
65.445
67.179
68.742
70.124
71.315
72.307
73.092
73.664
74.018
74.149
74.055
73.734
73.184
72.406
71.402
70.174
68.727
67.066
65.195
63.124
60.86
58.412
55.791
53.008
50.076
47.006
43.813
40.512
37.117
33.643
30.106
26.521
22.906
19.276
15.646
12.032
8.451
4.916
1.442
-1.956
-5.266
-8.475
-11.572
-14.545
-17.386
-20.084
-22.633
-25.027
-27.258
-29.324
-31.22
-32.945
-34.497
-35.875
-37.082
-38.119
-38.988
-39.694
-40.241
-40.634
-40.879
-40.983
-40.952
-40.795
-40.518
-40.132
-39.642
-39.06
-38.392
-37.648
-36.836
-35.965
-35.042
-34.077
-33.075
-32.046
-30.994
-29.928
-28.851
-27.77
-26.69
-25.614
-24.546
-23.489
-22.446
-21.418
-20.409
-19.418
-18.446
-17.495
-16.564
-15.654
-14.764
-13.894
-13.044
-12.214
-11.402
-10.609
-9.834
-9.077
-8.337
-7.614
-6.908
-6.22
-5.55
-4.898
-4.264
-3.651
-3.058
-2.488
-1.941
-1.42
-0.926
-0.462
-0.031
0.365
0.723
1.041
1.314
1.541
1.718
1.842
1.91
1.919
1.867
1.752
1.572
1.324
1.008
0.621
0.165
-0.363
-0.963
-1.633
-2.373
-3.183
-4.062
-5.008
-6.02
-7.096
-8.233
-9.429
-10.682
-11.988
-13.344
-14.745
-16.189
-17.67
-19.183
-20.724
-22.287
-23.866
-25.455
-27.047
-28.637
-30.217
-31.781
-33.322
-34.833
-36.308
-37.74
-39.124
-40.452
-41.719
-42.919
-44.047
-45.095
-46.06
-46.933
-47.711
-48.387
-48.956
-49.413
-49.753
-49.972
-50.064
-50.025
-49.853
-49.543
-49.093
-48.501
-47.765
-46.885
-45.863
-44.698
-43.395
-41.956
-40.386
-38.69
-36.872
-34.939
-32.897
-30.752
-28.514
-26.189
-23.787
-21.32
-18.799
-16.238
-13.652
-11.056
-8.466
-5.901
-3.378
-0.92
1.456
3.73
5.883
7.897
9.754
11.435
12.925
14.213
15.286
16.138
16.757
17.135
17.266
17.15
16.791
16.195
15.363
14.291
12.976
11.414
9.605
7.548
5.24
2.678
-0.131
-3.169
-6.401
-9.779
-13.259
-16.807
-20.396
-24.007
-27.611
-31.152
-34.561
-37.769
-40.711
-43.339
-45.604
-47.424
-48.786
-49.782
-50.615
-51.596
-53.034
-55.125
-57.961
-61.64
-66.124
-71.155
-76.282
-80.768
-83.786
-84.726
-83.326
-79.452
-73.23
-65.272
-56.524
-48.365
-42.48
-40.551
-43.818
-53.282
-69.886
-92.339
-117.257
-141.628
-161.82
-177.683
-193.543
-208.627
-217.951
-211.176
-172.729
-96.51
14.278
150.16
297.543
448.494
596.462
732.672
844.117
912.836
928.381
889.691
805.283
694.392
573.226
454.951
353.047
273.287
218.087
186.696
169.505
156.555
142.965
126.529
109.883
97.526
89.013
81.694
73.198
61.041
45.165
27.228
8.545
-9.657
-26.013
-39.445
-49.446
-55.852
-58.976
-59.499
-58.008
-55.04
-51.282
-47.418
-43.91
-41.084
-39.093
-37.917
-37.558
-38.004
-39.181
-40.992
-43.341
-46.125
-49.248
-52.625
-56.149
-59.697
-63.153
-66.396
-69.314
-71.805
-73.772
-75.158
-75.933
-76.097
-75.67
-74.686
-73.189
-71.237
-68.9
-66.247
-63.344
-60.253
-57.03
-53.735
-50.425
-47.157
-43.984
-40.942
-38.055
-35.342
-32.811
-30.465
-28.304
-26.322
-24.504
-22.84
-21.321
-19.937
-18.681
-17.543
-16.509
-15.567
-14.7
-13.897
-13.145
-12.43
-11.739
-11.06
-10.381
-9.691
-8.979
-8.235
-7.446
-6.6
-5.686
-4.693
-3.611
-2.432
-1.148
0.248
1.76
3.392
5.144
7.017
9.009
11.118
13.341
15.67
18.1
20.623
23.228
25.905
28.642
31.426
34.244
37.081
39.921
42.75
45.551
48.308
51.004
53.625
56.153
58.574
60.87
63.029
65.035
66.874
68.535
70.004
71.272
72.327
73.162
73.769
74.141
74.274
74.164
73.808
73.206
72.358
71.265
69.931
68.361
66.56
64.535
62.295
59.849
57.209
54.384
51.388
48.233
44.933
41.501
37.954
34.305
30.569
26.763
22.901
19
15.073
11.138
7.209
3.3
-0.573
-4.398
-8.16
-11.847
-15.446
-18.946
-22.336
-25.605
-28.745
-31.748
-34.606
-37.312
-39.863
-42.253
-44.48
-46.541
-48.435
-50.162
-51.722
-53.117
-54.348
-55.419
-56.332
-57.093
-57.706
-58.177
-58.51
-58.713
-58.793
-58.755
-58.608
-58.358
-58.014
-57.584
-57.075
-56.496
-55.854
-55.158
-54.415
-53.634
-52.822
-51.987
-51.137
-50.277
-49.414
-48.555
-47.706
-46.872
-46.058
-45.269
-44.509
-43.782
-43.09
-42.438
-41.826
-41.257
-40.733
-40.255
-39.822
-39.436
-39.096
-38.801
-38.551
-38.344
-38.18
-38.057
-37.972
-37.924
-37.912
-37.932
-37.982
-38.06
-38.164
-38.289
-38.435
-38.597
-38.773
-38.96
-39.156
-39.358
-39.562
-39.767
-39.97
-40.169
-40.362
-40.547
-40.723
-40.888
-41.043
-41.186
-41.318
-41.439
-41.551
-41.653
-41.747
-41.836
-41.919
-42
-42.08
-42.16
-42.243
-42.332
-42.427
-42.531
-42.647
-42.776
-42.921
-43.084
-43.266
-43.471
-43.699
-43.953
-44.235
-44.547
-44.891
-45.267
-45.678
-46.123
-46.604
-47.12
-47.671
-48.256
-48.872
-49.517
-50.189
-50.884
-51.598
-52.327
-53.066
-53.812
-54.557
-55.298
-56.028
-56.742
-57.432
-58.093
-58.719
-59.303
-59.839
-60.32
-60.741
-61.095
-61.375
-61.575
-61.687
-61.707
-61.627
-61.44
-61.14
-60.723
-60.182
-59.514
-58.714
-57.779
-56.708
-55.498
-54.148
-52.66
-51.033
-49.269
-47.372
-45.344
-43.189
-40.911
-38.516
-36.013
-33.408
-30.712
-27.935
-25.089
-22.185
-19.237
-16.259
-13.267
-10.272
-7.289
-4.334
-1.425
1.418
4.173
6.821
9.343
11.716
13.92
15.939
17.756
19.367
20.768
21.944
22.882
23.564
23.961
24.058
23.843
23.302
22.425
21.212
19.661
17.788
15.617
13.158
10.418
7.39
4.065
0.469
-3.356
-7.348
-11.418
-15.488
-19.489
-23.33
-26.947
-30.285
-33.286
-35.923
-38.19
-40.066
-41.533
-42.56
-43.083
-43.134
-42.86
-42.493
-42.377
-42.823
-44.042
-46.211
-49.507
-53.948
-59.334
-65.221
-70.881
-75.583
-78.808
-80.285
-79.843
-77.468
-73.529
-68.769
-64.318
-61.514
-61.754
-66.107
-75.351
-90.33
-110.127
-131.757
-152.614
-169.708
-182.096
-192.971
-202.379
-205.87
-195.861
-159.772
-88.872
15.913
149.189
300.939
459.177
615.792
760.069
878.103
956.972
984.276
955.824
876.18
757.327
618.259
477.311
353.55
261.004
202.144
173.655
163.344
156.107
145.803
130.913
114.465
102.66
95.612
90.069
83.228
72.01
56.059
37.268
17.259
-2.487
-20.383
-35.239
-46.489
-53.926
-57.842
-58.925
-57.783
-54.99
-51.274
-47.33
-43.607
-40.386
-37.756
-35.66
-34.085
-33.016
-32.393
-32.137
-32.18
-32.469
-32.982
-33.715
-34.632
-35.666
-36.74
-37.774
-38.708
-39.508
-40.159
-40.663
-41.031
-41.278
-41.428
-41.512
-41.549
-41.551
-41.511
-41.396
-41.193
-40.899
-40.523
-40.089
-39.604
-39.061
-38.446
-37.733
-36.901
-35.937
-34.825
-33.551
-32.115
-30.528
-28.826
-27.069
-25.299
-23.543
-21.819
-20.13
-18.484
-16.892
-15.365
-13.908
-12.525
-11.217
-9.984
-8.83
-7.746
-6.715
-5.709
-4.684
-3.609
-2.461
-1.22
0.125
1.584
3.169
4.885
6.729
8.702
10.804
13.036
15.402
17.898
20.519
23.255
26.093
29.021
32.029
35.104
38.235
41.411
44.62
47.852
51.097
54.345
57.582
60.795
63.967
67.082
70.124
73.077
75.924
78.647
81.231
83.66
85.921
88
89.883
91.557
93.01
94.233
95.215
95.949
96.426
96.643
96.593
96.275
95.688
94.83
93.703
92.309
90.652
88.735
86.566
84.149
81.495
78.611
75.508
72.199
68.696
65.015
61.17
57.177
53.054
48.819
44.489
40.084
35.622
31.123
26.605
22.088
17.59
13.131
8.727
4.397
0.156
-3.979
-7.995
-11.877
-15.614
-19.193
-22.604
-25.839
-28.888
-31.746
-34.405
-36.861
-39.11
-41.151
-42.982
-44.603
-46.017
-47.225
-48.232
-49.042
-49.662
-50.099
-50.36
-50.454
-50.39
-50.18
-49.833
-49.361
-48.776
-48.089
-47.312
-46.457
-45.534
-44.554
-43.528
-42.466
-41.378
-40.272
-39.157
-38.041
-36.932
-35.837
-34.762
-33.713
-32.696
-31.714
-30.772
-29.874
-29.023
-28.22
-27.468
-26.768
-26.121
-25.526
-24.984
-24.492
-24.05
-23.655
-23.304
-22.995
-22.724
-22.49
-22.287
-22.114
-21.966
-21.843
-21.74
-21.655
-21.587
-21.534
-21.494
-21.466
-21.449
-21.443
-21.446
-21.458
-21.48
-21.511
-21.55
-21.598
-21.656
-21.722
-21.798
-21.884
-21.98
-22.088
-22.208
-22.342
-22.492
-22.659
-22.846
-23.054
-23.287
-23.545
-23.832
-24.15
-24.501
-24.887
-25.31
-25.77
-26.27
-26.809
-27.388
-28.008
-28.667
-29.365
-30.102
-30.876
-31.687
-32.533
-33.413
-34.326
-35.271
-36.246
-37.249
-38.279
-39.333
-40.409
-41.505
-42.617
-43.742
-44.875
-46.014
-47.152
-48.285
-49.406
-50.511
-51.592
-52.642
-53.655
-54.625
-55.544
-56.406
-57.205
-57.935
-58.591
-59.166
-59.657
-60.057
-60.361
-60.565
-60.663
-60.65
-60.523
-60.276
-59.906
-59.408
-58.779
-58.017
-57.117
-56.079
-54.901
-53.582
-52.122
-50.522
-48.785
-46.913
-44.913
-42.79
-40.55
-38.202
-35.756
-33.22
-30.604
-27.918
-25.175
-22.385
-19.56
-16.711
-13.852
-10.998
-8.165
-5.37
-2.629
0.038
2.615
5.082
7.418
9.606
11.629
13.472
15.12
16.557
17.766
18.735
19.452
19.909
20.1
20.019
19.66
19.022
18.107
16.923
15.478
13.775
11.807
9.568
7.054
4.267
1.21
-2.112
-5.695
-9.523
-13.569
-17.794
-22.15
-26.587
-31.058
-35.524
-39.944
-44.265
-48.427
-52.348
-55.939
-59.144
-61.918
-64.232
-66.092
-67.48
-68.363
-68.857
-69.171
-69.507
-70.106
-71.045
-72.232
-73.824
-76.105
-79.073
-82.526
-86.031
-88.923
-91.024
-92.55
-93.24
-92.705
-90.985
-88.39
-85.849
-84.943
-86.623
-91.267
-99.967
-112.786
-127.71
-142.703
-154.938
-163.004
-170.217
-178.587
-185.37
-183.627
-160.313
-103.721
-11.815
110.958
254.205
403.649
548.847
679.417
783.138
849.287
868.055
834.93
753.683
638.066
506.99
379.702
274.374
196.952
144.811
111.564
84.916
59.176
34.827
13.43
0.043
-4.112
-2.428
1.391
3.027
0.354
-6.157
-15.554
-26.621
-38.246
-49.463
-59.141
-66.224
-70.252
-71.36
-69.978
-66.745
-62.308
-57.284
-52.363
-48.18
-45.081
-43.182
-42.459
-42.789
-44.063
-46.193
-49.029
-52.406
-56.176
-60.208
-64.4
-68.645
-72.805
-76.729
-80.268
-83.311
-85.8
-87.706
-89.016
-89.739
-89.892
-89.514
-88.665
-87.403
-85.783
-83.865
-81.7
-79.349
-76.881
-74.364
-71.864
-69.432
-67.097
-64.882
-62.799
-60.853
-59.043
-57.365
-55.802
-54.346
-52.988
-51.723
-50.546
-49.45
-48.423
-47.454
-46.532
-45.646
-44.788
-43.947
-43.117
-42.289
-41.455
-40.61
-39.748
-38.861
-37.939
-36.973
-35.952
-34.867
-33.707
-32.464
-31.129
-29.696
-28.158
-26.512
-24.753
-22.881
-20.893
-18.79
-16.573
-14.244
-11.805
-9.26
-6.614
-3.873
-1.043
1.867
4.849
7.893
10.989
14.127
17.293
20.475
23.661
26.837
29.988
33.102
36.162
39.154
42.063
44.874
47.573
50.144
52.575
54.851
56.961
58.893
60.636
62.182
63.521
64.646
65.55
66.229
66.676
66.89
66.867
66.606
66.108
65.372
64.402
63.201
61.772
60.122
58.256
56.183
53.91
51.446
48.803
45.99
43.021
39.907
36.662
33.3
29.835
26.282
22.657
18.973
15.247
11.494
7.727
3.963
0.215
-3.503
-7.178
-10.796
-14.345
-17.814
-21.191
-24.465
-27.627
-30.668
-33.58
-36.356
-38.988
-41.472
-43.802
-45.975
-47.987
-49.836
-51.52
-53.039
-54.392
-55.581
-56.608
-57.474
-58.184
-58.74
-59.148
-59.413
-59.54
-59.536
-59.405
-59.156
-58.794
-58.327
-57.763
-57.107
-56.368
-55.554
-54.671
-53.727
-52.729
-51.684
-50.6
-49.483
-48.34
-47.178
-46.001
-44.817
-43.631
-42.45
-41.278
-40.121
-38.984
-37.871
-36.788
-35.737
-34.724
-33.751
-32.822
-31.939
-31.105
-30.324
-29.596
-28.924
-28.309
-27.753
-27.257
-26.821
-26.448
-26.135
-25.885
-25.697
-25.57
-25.506
-25.502
-25.559
-25.677
-25.855
-26.092
-26.387
-26.738
-27.145
-27.605
-28.116
-28.676
-29.283
-29.934
-30.626
-31.357
-32.123
-32.921
-33.748
-34.6
-35.473
-36.364
-37.269
-38.185
-39.108
-40.034
-40.961
-41.886
-42.807
-43.72
-44.624
-45.517
-46.397
-47.26
-48.105
-48.93
-49.732
-50.51
-51.263
-51.989
-52.688
-53.36
-54.004
-54.62
-55.21
-55.774
-56.313
-56.828
-57.32
-57.791
-58.244
-58.681
-59.105
-59.519
-59.926
-60.328
-60.728
-61.128
-61.528
-61.93
-62.333
-62.738
-63.143
-63.547
-63.95
-64.351
-64.752
-65.152
-65.55
-65.946
-66.339
-66.729
-67.111
-67.479
-67.828
-68.149
-68.438
-68.689
-68.897
-69.056
-69.159
-69.203
-69.184
-69.098
-68.937
-68.689
-68.337
-67.871
-67.289
-66.594
-65.794
-64.897
-63.906
-62.832
-61.691
-60.49
-59.231
-57.904
-56.479
-54.942
-53.288
-51.519
-49.658
-47.71
-45.667
-43.518
-41.251
-38.852
-36.318
-33.629
-30.741
-27.642
-24.343
-20.884
-17.347
-13.791
-10.251
-6.759
-3.328
0.009
3.196
6.189
8.952
11.445
13.635
15.461
16.827
17.681
18.008
17.83
17.211
16.182
14.741
12.889
10.635
8.009
5.063
1.827
-1.689
-5.462
-9.46
-13.613
-17.824
-22.035
-26.226
-30.382
-34.486
-38.478
-42.255
-45.737
-48.893
-51.703
-54.145
-56.173
-57.717
-58.732
-59.243
-59.283
-58.839
-57.942
-56.653
-55.132
-53.733
-52.803
-52.598
-53.404
-55.463
-58.779
-63.275
-68.589
-73.913
-78.583
-82.054
-83.667
-83.024
-80.117
-75.073
-68.652
-62.343
-57.417
-55.131
-57.052
-64.403
-78.06
-98.877
-125.669
-155.045
-184.038
-209.095
-229.438
-247.932
-263.493
-272.309
-264.797
-226.041
-150.69
-41.042
92.623
232.68
372.062
508.973
640.142
763.311
864.355
923.746
932.234
885.688
790.553
667.102
532.103
403.501
300.979
229.077
187.233
168.77
156.674
142.877
125.708
106.185
91.347
83.191
78.609
74.355
66.58
54.068
38.192
20.461
2.433
-14.586
-29.508
-41.258
-49.334
-53.806
-55.097
-53.838
-50.63
-46.069
-40.843
-35.647
-30.956
-27.036
-24.012
-21.892
-20.68
-20.376
-20.913
-22.179
-24.068
-26.482
-29.32
-32.502
-35.927
-39.462
-42.982
-46.357
-49.467
-52.205
-54.472
-56.193
-57.328
-57.869
-57.834
-57.255
-56.176
-54.65
-52.744
-50.519
-48.037
-45.356
-42.528
-39.607
-36.649
-33.704
-30.821
-28.039
-25.378
-22.853
-20.469
-18.227
-16.124
-14.151
-12.293
-10.538
-8.876
-7.3
-5.805
-4.383
-3.023
-1.715
-0.449
0.785
1.995
3.19
4.38
5.573
6.778
8.002
9.251
10.534
11.86
13.237
14.676
16.184
17.769
19.439
21.198
23.053
25.007
27.062
29.218
31.474
33.831
36.284
38.83
41.465
44.183
46.977
49.842
52.769
55.751
58.777
61.839
64.926
68.026
71.128
74.219
77.286
80.317
83.297
86.212
89.049
91.793
94.432
96.951
99.337
101.577
103.658
105.571
107.302
108.844
110.186
111.323
112.247
112.953
113.437
113.696
113.728
113.532
113.108
112.456
111.578
110.478
109.159
107.625
105.883
103.94
101.803
99.481
96.984
94.323
91.508
88.552
85.467
82.268
78.967
75.579
72.12
68.603
65.044
61.458
57.86
54.264
50.685
47.136
43.63
40.18
36.797
33.494
30.28
27.167
24.162
21.276
18.515
15.887
13.399
11.057
8.864
6.825
4.943
3.222
1.661
0.262
-0.975
-2.05
-2.966
-3.725
-4.33
-4.786
-5.096
-5.266
-5.301
-5.208
-4.992
-4.661
-4.221
-3.679
-3.041
-2.315
-1.507
-0.624
0.327
1.339
2.406
3.52
4.676
5.868
7.088
8.33
9.59
10.859
12.133
13.405
14.67
15.923
17.157
18.368
19.551
20.703
21.82
22.898
23.934
24.926
25.871
26.767
27.613
28.405
29.143
29.825
30.45
31.018
31.527
31.976
32.365
32.694
32.961
33.168
33.312
33.393
33.412
33.368
33.263
33.097
32.872
32.589
32.25
31.857
31.411
30.915
30.366
29.764
29.109
28.399
27.635
26.816
25.94
25.007
24.016
22.97
21.871
20.718
19.509
18.243
16.921
15.545
14.115
12.635
11.107
9.533
7.921
6.273
4.594
2.888
1.147
-0.634
-2.457
-4.327
-6.244
-8.201
-10.196
-12.22
-14.256
-16.291
-18.308
-20.293
-22.237
-24.115
-25.908
-27.604
-29.183
-30.642
-31.965
-33.105
-34.047
-34.807
-35.413
-35.94
-36.424
-36.812
-37.169
-37.653
-38.416
-39.666
-41.425
-43.505
-45.936
-48.87
-52.235
-55.749
-58.884
-60.92
-61.667
-61.377
-60.023
-57.567
-54.22
-50.674
-48.306
-48.491
-51.941
-58.931
-69.695
-84.54
-102.242
-118.198
-126.801
-123.96
-111.749
-101.616
-104.945
-124.451
-147.544
-143.277
-80.863
50.954
235.35
